,time (s),surface tension (mN/m)
0,0.109979,32.71293957652502
1,0.312718,32.97728548849062
2,0.509201,32.86979999650605
3,0.720278,32.36631194858387
4,0.915926,33.13541346226865
5,1.152045,32.52123009884573
6,1.354723,33.2945887633873
7,1.558766,32.36631194858387
8,1.757105,32.627856840598156
9,1.969405,32.52123009884573
10,2.237002,32.78402684961197
11,2.465296,32.52123009884573
12,2.706037,32.67717221499182
13,2.948407,32.94122909894817
14,3.185615,32.67717221499182
15,3.468244,32.67717221499182
16,3.695842,32.94122909894817
17,3.882967,33.050021920676194
18,4.09418,32.94122909894817
19,4.306937,33.09947244874581
20,4.534418,32.59165648883849
21,4.72669,33.09947244874581
22,4.926139,32.641484579520544
23,5.123102,33.09947244874581
24,5.310805,32.330401778834585
25,5.511537,32.59165648883849
26,5.777264,32.747937333108695
27,6.004075,32.747937333108695
28,6.244339,32.834147086138316
29,6.476116,33.258765850679346
30,6.707456,32.90525307971599
31,6.9732,32.40017140067828
32,7.208719,32.485429875897445
33,7.413056,32.29456998345025
34,7.622724,32.641484579520544
35,7.819727,32.90525307971599
36,8.066309,32.641484579520544
37,8.287283,32.641484579520544
38,8.47791,32.29456998345025
39,8.66664,32.641484579520544
40,8.857855,32.55553514476943
41,9.046916,32.140451635091644
42,9.304878,32.449708818357564
43,9.564986,32.71192762173172
44,9.794595,32.90525307971599
45,10.029583,32.40017140067828
46,10.364735,32.55553514476943
47,10.576717,32.29456998345025
48,10.79187,32.140451635091644
49,10.989278,32.29456998345025
50,11.212237,32.40017140067828
51,11.46717,32.90525307971599
52,11.659032,32.29456998345025
53,11.850845,32.140451635091644
54,12.046444,32.140451635091644
55,12.242246,32.449708818357564
56,12.43227,32.71192762173172
57,12.654418,32.55553514476943
58,12.884961,32.71192762173172
59,13.114168,32.140451635091644
60,13.353994,32.798574717358406
61,13.587613,32.140451635091644
62,13.876387,32.641484579520544
63,14.120049,32.449708818357564
64,14.351893,32.55553514476943
65,14.580018,32.449708818357564
66,14.78571,32.140451635091644
67,15.041621,32.55553514476943
68,15.26728,32.449708818357564
69,15.475476,32.71192762173172
70,15.692421,32.55553514476943
71,15.877548,32.90525307971599
72,16.110554,32.29456998345025
73,16.306593,32.81967633535869
74,16.538905,32.55553514476943
75,16.773371,32.29456998345025
76,17.000837,32.29456998345025
77,17.276003,32.71192762173172
78,17.511119,32.55553514476943
79,17.749486,32.449708818357564
80,17.944538,32.71192762173172
81,18.17153,32.449708818357564
82,18.444206,32.29456998345025
83,18.649148,32.55553514476943
84,18.843294,32.140451635091644
85,19.031493,32.140451635091644
86,19.219075,32.140451635091644
87,19.404305,32.449708818357564
88,19.63785,32.71192762173172
89,19.850493,32.29456998345025
90,20.059887,32.55553514476943
91,20.28937,32.29456998345025
92,20.571064,32.140451635091644
93,20.84423,32.29456998345025
94,21.091632,32.40017140067828
95,21.340896,32.29456998345025
96,21.556808,32.40017140067828
97,21.766239,32.449708818357564
98,22.012061,32.449708818357564
99,22.220828,32.71192762173172
100,22.428897,33.06361262764922
101,22.620536,32.71192762173172
102,22.811512,32.90525307971599
103,22.997632,32.449708818357564
104,23.198384,32.71192762173172
105,23.451308,32.449708818357564
106,23.705508,32.29456998345025
107,23.933932,32.140451635091644
108,24.1649,32.449708818357564
109,24.452152,32.449708818357564
110,24.684017,32.29456998345025
111,24.932541,32.641484579520544
112,25.133467,32.71192762173172
113,25.355401,32.40017140067828
114,25.627855,32.641484579520544
115,25.827702,32.55553514476943
116,26.019978,32.71192762173172
117,26.20587,32.641484579520544
118,26.391884,32.140451635091644
119,26.583205,32.55553514476943
120,26.796923,32.71192762173172
121,26.999288,32.71192762173172
122,27.217189,32.29456998345025
123,27.444905,32.40017140067828
124,27.69261,32.140451635091644
125,27.981655,32.81967633535869
126,28.211871,33.06361262764922
127,28.449723,32.71192762173172
128,28.698429,32.71192762173172
129,28.932332,32.449708818357564
130,29.180703,32.55553514476943
131,29.407473,32.90525307971599
132,29.633271,32.40017140067828
133,29.823897,32.140451635091644
134,30.011313,32.71192762173172
135,30.235983,32.449708818357564
136,30.42449,32.71192762173172
137,30.654912,32.29456998345025
138,30.946875,32.29456998345025
139,31.188543,32.40017140067828
140,31.462352,32.140451635091644
141,31.699407,32.449708818357564
142,31.948396,32.71192762173172
143,32.124073,32.71192762173172
144,32.33889,32.641484579520544
145,32.620241,32.29456998345025
146,32.824521,32.449708818357564
147,33.006124,32.55553514476943
148,33.201203,32.29456998345025
149,33.390012,32.90525307971599
150,33.562613,32.40017140067828
151,33.81999,32.71192762173172
152,34.058492,32.140451635091644
153,34.290138,32.140451635091644
154,34.516569,32.29456998345025
155,34.752088,32.29456998345025
156,35.022099,32.449708818357564
157,35.252357,32.140451635091644
158,35.501597,32.29456998345025
159,35.709518,32.449708818357564
160,35.919414,32.140451635091644
161,36.158575,32.449708818357564
162,36.36402,32.140451635091644
163,36.562299,32.140451635091644
164,36.757341,32.449708818357564
165,36.950707,32.40017140067828
166,37.1308,32.71192762173172
167,37.374875,32.71192762173172
168,37.592197,32.40017140067828
169,37.841891,32.641484579520544
170,38.078831,32.71192762173172
171,38.302124,32.71192762173172
172,38.574688,32.798574717358406
173,38.850601,32.29456998345025
174,39.06135,32.449708818357564
175,39.283001,32.29456998345025
176,39.507888,32.29456998345025
177,39.740286,32.140451635091644
178,39.94992,32.55553514476943
179,40.168337,32.90525307971599
180,40.364275,32.29456998345025
181,40.551984,32.40017140067828
182,40.78401,32.140451635091644
183,40.975345,32.641484579520544
184,41.189918,32.29456998345025
185,41.41632,32.55553514476943
186,41.641568,32.29456998345025
187,41.931996,32.449708818357564
188,42.164068,32.55553514476943
189,42.382987,32.449708818357564
190,42.614221,32.140451635091644
191,42.856344,32.55553514476943
192,43.143173,32.29456998345025
193,43.351144,32.29456998345025
194,43.550355,32.641484579520544
195,43.772474,32.29456998345025
196,43.983904,32.449708818357564
197,44.210839,32.140451635091644
198,44.406917,32.55553514476943
199,44.588551,32.140451635091644
200,44.776372,32.71192762173172
201,45.003718,32.55553514476943
202,45.246697,32.641484579520544
203,45.497357,32.40017140067828
204,45.735822,32.140451635091644
205,45.967596,32.140451635091644
206,46.194554,32.29456998345025
207,46.463524,32.40017140067828
208,46.669005,32.90525307971599
209,46.865881,33.06361262764922
210,47.089641,32.55553514476943
211,47.276456,32.55553514476943
212,47.677833,32.29456998345025
213,47.867109,32.449708818357564
214,48.048324,32.29456998345025
215,48.241675,32.140451635091644
216,48.468163,32.29456998345025
217,48.76526,32.140451635091644
218,48.982588,32.55553514476943
219,49.204582,32.71192762173172
220,49.43073,32.449708818357564
221,49.660789,32.29456998345025
222,49.932501,32.55553514476943
223,50.170128,32.29456998345025
224,50.38702,32.40017140067828
225,50.588184,32.55553514476943
226,50.772678,32.40017140067828
227,51.0363,32.29456998345025
228,51.255955,32.641484579520544
229,51.445763,32.55553514476943
230,51.639932,32.29456998345025
231,51.851199,32.29456998345025
232,52.125997,32.29456998345025
233,52.354119,32.55553514476943
234,52.58358,32.29456998345025
235,52.81384,32.29456998345025
236,53.084086,32.40017140067828
237,53.334423,32.29456998345025
238,53.544163,32.798574717358406
239,53.763312,32.71192762173172
240,53.951579,32.485429875897445
241,54.149448,32.140451635091644
242,54.384719,32.29456998345025
243,54.569829,32.71192762173172
244,54.754932,32.29456998345025
245,54.968809,32.798574717358406
246,55.215801,32.641484579520544
247,55.488517,32.641484579520544
248,55.716462,32.55553514476943
249,55.951765,32.81967633535869
250,56.184715,32.29456998345025
251,56.42533,32.29456998345025
252,56.700521,32.29456998345025
253,56.912098,32.90525307971599
254,57.138931,32.485429875897445
255,57.32778,32.29456998345025
256,57.517292,32.55553514476943
257,57.745828,32.29456998345025
258,57.934958,33.06361262764922
259,58.119659,32.55553514476943
260,58.30551,32.29456998345025
261,58.519449,32.449708818357564
262,58.798193,32.55553514476943
263,59.044612,32.29456998345025
264,59.277352,32.29456998345025
265,59.516787,32.449708818357564
266,59.755133,32.29456998345025
267,60.01465,32.29456998345025
268,60.225404,32.55553514476943
269,60.434542,32.55553514476943
270,60.613339,32.40017140067828
271,60.811506,32.40017140067828
272,61.068528,32.29456998345025
273,61.266873,32.55553514476943
274,61.497415,32.140451635091644
