,time (s),surface tension (mN/m)
0,0.102446,41.68861013604055
1,0.479406,41.53907411158045
2,0.816333,41.68861013604055
3,1.17708,41.87747657600325
4,1.495042,41.35173385881802
5,1.793589,41.72836097673433
6,2.111156,41.87747657600325
7,2.518423,41.72836097673433
8,2.835799,42.068305486641314
9,3.113433,42.068305486641314
10,3.428904,41.53907411158045
11,3.757976,41.53907411158045
12,4.04402,41.87747657600325
13,4.280965,41.462883407053184
14,4.55451,42.068305486641314
15,4.884221,41.462883407053184
16,5.154119,41.68861013604055
17,5.415975,42.068305486641314
18,5.743741,42.068305486641314
19,6.125491,42.068305486641314
20,6.453394,42.068305486641314
21,6.7568,41.72836097673433
22,7.064185,42.068305486641314
23,7.457301,41.72836097673433
24,7.799808,42.068305486641314
25,8.128467,41.87747657600325
26,8.393963,42.068305486641314
27,8.75538,41.72836097673433
28,9.037904,42.068305486641314
29,9.307616,42.068305486641314
30,9.582525,41.72836097673433
31,9.942235,42.068305486641314
32,10.415471,41.462883407053184
33,10.768528,41.462883407053184
34,11.168979,42.068305486641314
35,11.494377,41.72836097673433
36,11.807627,41.72836097673433
37,12.123312,42.068305486641314
38,12.497424,41.83974774326646
39,12.794363,41.72836097673433
40,13.1036,41.72836097673433
41,13.423747,41.72836097673433
42,13.767102,41.72836097673433
43,14.063588,41.50165015705082
44,14.345699,42.068305486641314
45,14.654619,42.068305486641314
46,14.970043,42.068305486641314
47,15.263552,41.87747657600325
48,15.55449,42.068305486641314
49,15.793537,41.72836097673433
50,16.191566,41.87747657600325
51,16.538466,41.72836097673433
52,16.867401,41.83974774326646
53,17.165241,41.72836097673433
54,17.563241,42.068305486641314
55,17.855744,42.068305486641314
56,18.198087,42.068305486641314
57,18.633352,42.068305486641314
58,18.900446,41.72836097673433
59,19.165686,42.068305486641314
60,19.464567,42.068305486641314
61,19.782879,41.72836097673433
62,20.071134,41.72836097673433
63,20.34483,41.72836097673433
64,20.659569,42.068305486641314
65,21.071759,41.72836097673433
66,21.404695,41.72836097673433
67,21.743197,42.068305486641314
68,22.05921,41.72836097673433
69,22.44838,42.068305486641314
70,22.78613,41.91782548674005
71,23.054856,41.91782548674005
72,23.363524,42.259313489333806
73,23.776588,42.068305486641314
74,24.106344,42.068305486641314
75,24.370697,41.91782548674005
76,24.650855,41.72836097673433
77,25.009888,42.259313489333806
78,25.306002,42.068305486641314
79,25.579828,42.068305486641314
80,25.878392,41.462883407053184
81,26.2383,42.068305486641314
82,26.502266,42.068305486641314
83,26.792856,42.068305486641314
84,27.103756,41.72836097673433
85,27.481972,41.31415688009424
86,27.815282,42.068305486641314
87,28.110065,41.50165015705082
88,28.391446,42.259313489333806
89,28.75221,42.068305486641314
90,29.081696,41.72836097673433
91,29.422355,42.068305486641314
92,29.694414,42.068305486641314
93,30.065116,42.068305486641314
94,30.339259,42.259313489333806
95,30.594294,41.72836097673433
96,30.86545,41.72836097673433
97,31.237155,42.068305486641314
98,31.615276,41.72836097673433
99,31.927716,41.65072703248181
100,32.305091,42.068305486641314
101,32.623971,42.068305486641314
102,32.95546,42.068305486641314
103,33.259308,41.72836097673433
104,33.649279,41.1278311767318
105,33.932628,41.50165015705082
106,34.247395,42.068305486641314
107,34.620253,41.462883407053184
108,34.974628,42.068305486641314
109,35.247437,42.068305486641314
110,35.5587,41.72836097673433
111,35.834119,41.72836097673433
112,36.163945,41.31415688009424
113,36.436746,41.72836097673433
114,36.721094,42.068305486641314
115,37.022713,41.83974774326646
116,37.31029,42.259313489333806
117,37.609323,42.068305486641314
118,37.936261,41.91782548674005
119,38.264608,41.72836097673433
120,38.683661,41.72836097673433
121,39.015833,41.72836097673433
122,39.335039,41.1278311767318
123,39.621003,42.068305486641314
124,40.022903,41.462883407053184
125,40.339256,42.068305486641314
126,40.596395,42.259313489333806
127,40.872095,42.259313489333806
128,41.216962,42.068305486641314
129,41.511899,41.83974774326646
130,41.791262,41.91782548674005
131,42.318573,41.91782548674005
132,42.685139,41.83974774326646
133,43.000166,42.068305486641314
134,43.40743,42.068305486641314
135,43.711774,42.068305486641314
136,44.00911,42.259313489333806
137,44.309973,42.068305486641314
138,44.686669,42.068305486641314
139,45.02799,41.462883407053184
140,45.369414,41.91782548674005
141,45.760934,42.068305486641314
142,46.066264,41.91782548674005
143,46.363411,41.72836097673433
144,46.634406,41.72836097673433
145,46.99211,41.83974774326646
146,47.307019,42.259313489333806
147,47.638444,42.259313489333806
148,47.901371,41.65072703248181
149,48.226777,42.068305486641314
150,48.568506,42.068305486641314
151,48.883224,41.1278311767318
152,49.205563,42.068305486641314
153,49.576676,42.068305486641314
154,49.886071,41.91782548674005
155,50.196333,41.83974774326646
156,50.509995,41.31415688009424
157,50.892765,42.259313489333806
158,51.161676,42.068305486641314
159,51.451778,42.068305486641314
160,51.740126,42.068305486641314
161,52.075953,42.068305486641314
162,52.329985,41.65072703248181
163,52.611541,41.65072703248181
164,53.174342,41.31415688009424
165,53.462135,41.83974774326646
166,53.761013,41.31415688009424
167,54.047342,41.50165015705082
168,54.42022,41.91782548674005
169,54.741953,42.259313489333806
170,55.072386,41.72836097673433
171,55.401956,41.65072703248181
172,55.803803,42.259313489333806
173,56.122348,42.068305486641314
174,56.442983,41.91782548674005
175,56.715509,41.65072703248181
176,57.067127,41.1278311767318
177,57.344861,42.259313489333806
178,57.63323,41.31415688009424
179,57.912349,42.259313489333806
180,58.245444,41.424941244027075
181,58.531175,41.83974774326646
182,58.809755,41.50165015705082
183,59.082639,41.50165015705082
184,59.458838,41.83974774326646
185,59.750533,42.259313489333806
186,60.041844,41.83974774326646
187,60.3189,41.83974774326646
188,60.730058,42.259313489333806
189,61.05859,41.91782548674005
190,61.390505,41.50165015705082
191,61.696842,41.65072703248181
192,62.038894,41.83974774326646
193,62.345163,41.65072703248181
194,62.630582,42.259313489333806
195,62.89473,41.83974774326646
196,63.290422,41.31415688009424
197,63.667158,42.03065909404197
198,63.939421,41.50165015705082
199,64.214465,41.83974774326646
200,64.605343,41.50165015705082
201,64.931906,41.65072703248181
202,65.231873,41.83974774326646
203,65.547989,41.91782548674005
204,65.883999,41.83974774326646
205,66.162239,42.259313489333806
206,66.478766,41.65072703248181
207,66.815623,42.068305486641314
208,67.200415,41.83974774326646
209,67.457851,41.83974774326646
210,67.745915,41.65072703248181
211,68.032721,41.83974774326646
212,68.348981,41.50165015705082
213,68.615148,41.83974774326646
214,68.940473,41.83974774326646
215,69.242979,41.31415688009424
216,69.548065,41.83974774326646
217,69.837814,41.50165015705082
218,70.127259,41.83974774326646
219,70.441258,41.31415688009424
220,70.829151,41.91782548674005
221,71.163936,41.65072703248181
222,71.446002,41.65072703248181
223,71.735396,41.65072703248181
224,72.129465,41.50165015705082
225,72.438269,41.50165015705082
226,72.692553,42.03065909404197
227,72.961249,41.83974774326646
228,73.339555,41.83974774326646
229,73.610797,41.50165015705082
230,74.020711,41.83974774326646
231,74.446802,41.23811602769487
232,74.715899,41.50165015705082
233,75.036034,41.69101879616195
234,75.329632,41.50165015705082
235,75.698621,41.31415688009424
236,75.979801,41.50165015705082
237,76.307448,41.50165015705082
238,76.621776,41.50165015705082
239,77.008878,41.65072703248181
240,77.344822,41.424941244027075
241,77.660919,41.23811602769487
242,77.918829,41.65072703248181
243,78.257113,41.50165015705082
244,78.520656,41.50165015705082
245,78.786057,41.31415688009424
246,79.066195,41.23811602769487
247,79.415607,41.65072703248181
248,79.711418,41.83974774326646
249,79.956777,41.69101879616195
250,80.212717,41.83974774326646
251,80.588166,41.65072703248181
252,80.882868,41.83974774326646
253,81.217258,41.424941244027075
254,81.513746,41.83974774326646
255,81.92297,42.259313489333806
256,82.219463,41.31415688009424
257,82.542691,42.03065909404197
258,82.856624,41.72836097673433
259,83.181957,41.83974774326646
260,83.474213,41.91782548674005
261,83.735623,41.83974774326646
262,83.988905,41.50165015705082
263,84.328506,41.50165015705082
264,84.582913,41.65072703248181
265,84.973266,41.424941244027075
266,85.227895,41.69101879616195
267,85.629966,41.83974774326646
268,85.956333,41.50165015705082
269,86.257136,41.83974774326646
270,86.588772,41.50165015705082
271,87.001445,41.31415688009424
272,87.325518,41.31415688009424
273,87.602517,41.50165015705082
274,87.913363,41.83974774326646
275,88.286782,41.83974774326646
276,88.543292,41.83974774326646
277,88.814078,41.83974774326646
278,89.089068,41.50165015705082
279,89.414414,41.424941244027075
280,89.670488,41.83974774326646
281,89.936926,41.83974774326646
282,90.232735,41.83974774326646
283,90.583355,41.23811602769487
284,90.879716,41.23811602769487
285,91.173818,41.50165015705082
286,91.483116,41.83974774326646
287,91.862826,42.03065909404197
288,92.196902,42.03065909404197
289,92.517017,41.50165015705082
290,92.810256,41.61293707895698
291,93.197691,41.83974774326646
292,93.511844,41.50165015705082
293,93.836074,41.69101879616195
294,94.09756,41.50165015705082
295,94.451351,41.83974774326646
296,94.747079,41.09019561578688
297,95.159532,41.69101879616195
298,95.54319,41.09019561578688
299,95.83255,41.09019561578688
300,96.081065,41.424941244027075
301,96.313793,41.69101879616195
302,96.731359,41.50165015705082
303,97.064205,41.50165015705082
304,97.372666,41.424941244027075
305,97.679328,41.27667229867987
306,98.065179,41.27667229867987
307,98.381169,41.61293707895698
308,98.708308,41.83974774326646
309,99.041569,41.50165015705082
310,99.378853,41.09019561578688
311,99.6535,41.424941244027075
312,99.944888,40.904880091986136
313,100.23427,41.69101879616195
314,100.570151,41.424941244027075
315,100.864336,41.09019561578688
316,101.1451,41.61293707895698
317,101.444318,41.424941244027075
318,101.783256,41.61293707895698
319,102.080387,41.88063647036838
320,102.389106,41.61293707895698
321,102.750507,41.09019561578688
322,103.126635,41.424941244027075
323,103.462164,41.61293707895698
324,103.793894,41.61293707895698
325,104.126312,41.83974774326646
326,104.517963,41.27667229867987
327,104.842098,41.61293707895698
328,105.129779,41.424941244027075
329,105.486251,41.424941244027075
330,105.976635,41.424941244027075
331,106.25041,41.80211303029883
332,106.530291,41.27667229867987
333,106.813912,41.61293707895698
334,107.168737,41.424941244027075
335,107.485123,41.09019561578688
336,107.797132,41.09019561578688
337,108.085736,41.424941244027075
338,108.441472,41.424941244027075
339,108.749036,41.09019561578688
340,109.05494,41.27667229867987
341,109.381968,42.221821508703556
342,109.772682,41.27667229867987
343,110.031288,41.27667229867987
344,110.29131,41.61293707895698
345,110.597795,41.09019561578688
346,110.96839,41.27667229867987
347,111.238248,41.27667229867987
348,111.516745,41.61293707895698
349,111.81177,41.88063647036838
350,112.137798,41.09019561578688
351,112.367792,41.09019561578688
352,112.670499,41.61293707895698
353,112.99395,41.27667229867987
354,113.348838,41.61293707895698
355,113.642759,41.09019561578688
356,113.957431,41.61293707895698
357,114.276328,41.09019561578688
358,114.63523,41.09019561578688
359,114.976771,41.61293707895698
360,115.302147,41.09019561578688
361,115.563864,41.09019561578688
362,115.911168,41.27667229867987
363,116.276531,41.424941244027075
364,116.6045,41.61293707895698
365,116.907489,41.27667229867987
366,117.234916,41.27667229867987
367,117.485289,41.27667229867987
368,117.777681,41.61293707895698
369,118.07738,41.88063647036838
370,118.447624,41.61293707895698
371,118.777022,41.61293707895698
372,119.09232,41.27667229867987
373,119.405483,41.69101879616195
374,119.743836,41.27667229867987
375,120.073616,41.80211303029883
376,120.404693,41.61293707895698
377,120.681351,41.27667229867987
378,121.018996,41.27667229867987
379,121.33112,41.27667229867987
380,121.595043,41.61293707895698
381,121.867885,41.27667229867987
382,122.249265,41.61293707895698
383,122.566185,41.80211303029883
384,122.852269,41.61293707895698
385,123.091642,41.09019561578688
386,123.480817,41.46431956172964
387,123.809708,41.46431956172964
388,124.12271,41.61293707895698
389,124.430676,42.03065909404197
390,124.777679,41.46431956172964
391,125.0697,41.80211303029883
392,125.391699,41.27667229867987
393,125.731451,41.27667229867987
394,126.153127,41.61293707895698
395,126.446814,41.27667229867987
396,126.863219,41.27667229867987
397,127.256813,41.61293707895698
398,127.512861,41.27667229867987
399,127.798867,41.27667229867987
400,128.116365,41.27667229867987
401,128.416524,41.61293707895698
402,128.720279,41.46431956172964
403,129.055674,41.61293707895698
404,129.370964,41.46431956172964
405,129.729569,41.27667229867987
406,130.081091,41.46431956172964
407,130.375748,41.61293707895698
408,130.662623,41.09019561578688
409,131.027097,41.46431956172964
410,131.361278,41.80211303029883
411,131.683241,41.80211303029883
412,131.957619,41.46431956172964
413,132.295481,42.03065909404197
414,132.541714,41.27667229867987
415,132.798874,41.61293707895698
416,133.070332,41.27667229867987
417,133.41824,41.46431956172964
418,133.687607,41.46431956172964
419,133.981599,41.09019561578688
420,134.256453,41.27667229867987
421,134.654225,41.46431956172964
422,134.969684,41.27667229867987
423,135.277861,41.61293707895698
424,135.582492,41.88063647036838
425,135.941871,41.27667229867987
426,136.229004,41.27667229867987
427,136.530451,41.46431956172964
428,136.845135,41.80211303029883
429,137.196622,41.27667229867987
430,137.737071,41.61293707895698
431,138.011333,41.61293707895698
432,138.367074,41.46431956172964
433,138.646415,41.46431956172964
434,138.942125,41.61293707895698
435,139.219635,41.27667229867987
436,139.562952,41.27667229867987
437,139.871983,41.80211303029883
438,140.187318,41.27667229867987
439,140.507441,41.61293707895698
440,140.920628,41.27667229867987
441,141.229019,41.80211303029883
442,141.517119,41.80211303029883
443,141.817509,41.46431956172964
444,142.217317,41.46431956172964
445,142.5294,41.61293707895698
446,142.818927,41.80211303029883
447,143.095618,41.80211303029883
448,143.468233,41.46431956172964
449,143.737806,41.27667229867987
450,144.005037,41.27667229867987
451,144.327545,41.27667229867987
452,144.678934,41.99310597653634
453,144.947457,41.27667229867987
454,145.218299,41.27667229867987
455,145.505966,41.80211303029883
456,145.890865,41.27667229867987
457,146.206837,41.46431956172964
458,146.526638,41.61293707895698
459,146.830323,41.80211303029883
460,147.199584,41.46431956172964
461,147.512647,41.61293707895698
462,147.867276,41.46431956172964
463,148.392923,41.27667229867987
464,148.687365,41.46431956172964
465,148.970063,41.46431956172964
466,149.225294,41.46431956172964
467,149.56182,41.27667229867987
468,149.859195,41.27667229867987
469,150.148084,41.61293707895698
470,150.425453,41.80211303029883
471,150.776944,41.46431956172964
472,151.072375,41.61293707895698
473,151.383119,41.27667229867987
474,151.698009,41.27667229867987
475,152.069986,41.99310597653634
476,152.380556,41.80211303029883
477,152.700247,41.27667229867987
478,153.029953,41.27667229867987
479,153.402953,41.80211303029883
480,153.676339,41.61293707895698
481,153.963292,41.61293707895698
482,154.233544,41.61293707895698
483,154.593555,41.27667229867987
484,154.866401,41.80211303029883
485,155.136045,41.99310597653634
486,155.413393,41.61293707895698
487,155.747734,41.61293707895698
488,155.979497,41.80211303029883
489,156.329695,41.61293707895698
490,156.62586,41.46431956172964
491,156.985122,41.46431956172964
492,157.296639,41.80211303029883
493,157.609258,41.61293707895698
494,157.94804,41.61293707895698
495,158.324004,41.46431956172964
496,158.710663,41.99310597653634
497,159.022708,41.46431956172964
498,159.291548,41.46431956172964
499,159.631014,41.46431956172964
500,159.919757,41.46431956172964
501,160.20699,41.46431956172964
502,160.480417,41.46431956172964
503,160.824759,41.80211303029883
504,161.075385,41.6537691369482
505,161.33835,41.6537691369482
506,161.643351,41.99310597653634
507,162.054645,41.6537691369482
508,162.39739,41.6537691369482
509,162.716083,41.80211303029883
510,162.995091,41.6537691369482
511,163.363568,41.99310597653634
512,163.659877,41.27667229867987
513,163.976303,41.61293707895698
514,164.29669,41.6537691369482
515,164.621236,41.6537691369482
516,164.910708,41.6537691369482
517,165.20104,41.99310597653634
518,165.471895,41.99310597653634
519,165.809036,41.99310597653634
520,166.105666,41.6537691369482
521,166.41355,41.27667229867987
522,166.663609,41.27667229867987
523,166.99739,41.6537691369482
524,167.289181,41.99310597653634
525,167.591337,41.84354095349147
526,167.904497,41.46431956172964
527,168.253574,41.6537691369482
528,168.583183,41.80211303029883
529,168.865946,41.99310597653634
530,169.51247,41.46431956172964
531,169.902766,41.6537691369482
532,170.174436,41.6537691369482
533,170.451912,41.6537691369482
534,170.772419,41.46431956172964
535,171.046277,41.46431956172964
536,171.327352,41.6537691369482
537,171.602247,41.80211303029883
538,171.913885,41.6537691369482
539,172.230947,41.6537691369482
540,172.564408,41.6537691369482
541,172.88718,41.052651804818176
542,173.250873,41.46431956172964
543,173.602435,41.6537691369482
544,173.903923,41.99310597653634
545,174.218428,41.38709157842804
546,174.651909,41.6537691369482
547,174.982271,41.6537691369482
548,175.275574,41.84354095349147
549,175.569785,41.99310597653634
550,175.938053,41.99310597653634
551,176.205562,41.99310597653634
552,176.476665,41.46431956172964
553,176.754629,41.6537691369482
554,177.107943,41.99310597653634
555,177.396142,41.6537691369482
556,177.649923,41.6537691369482
557,177.904887,41.99310597653634
558,178.284064,41.6537691369482
559,178.631442,41.99310597653634
560,178.931743,41.99310597653634
561,179.255175,41.99310597653634
562,179.657946,41.052651804818176
563,180.224121,41.99310597653634
564,180.608234,41.23928041910924
565,180.947265,41.84354095349147
566,181.231113,41.84354095349147
567,181.491449,41.6537691369482
568,181.741693,41.6537691369482
569,182.077332,41.99310597653634
570,182.351064,41.42785867437121
571,182.650321,41.765355110461904
572,182.90849,41.84354095349147
573,183.270108,41.765355110461904
574,183.571793,41.052651804818176
575,183.868501,41.84354095349147
576,184.188943,41.42785867437121
577,184.544251,41.42785867437121
578,184.833645,42.37693100145243
579,185.148792,41.99310597653634
580,185.456308,41.42785867437121
581,185.829998,41.42785867437121
582,186.155399,41.6537691369482
583,186.419742,41.99310597653634
584,186.689621,41.84354095349147
585,187.033337,41.99310597653634
586,187.295707,41.57524058248126
587,187.567569,41.052651804818176
588,187.863806,41.42785867437121
589,188.235607,41.38709157842804
590,188.513215,41.84354095349147
591,188.778739,41.6537691369482
592,189.030026,41.42785867437121
593,189.385053,41.42785867437121
594,189.685434,41.23928041910924
595,189.993612,41.42785867437121
596,190.31377,41.765355110461904
597,190.692314,41.99310597653634
598,191.074415,41.99310597653634
599,191.472359,41.23928041910924
600,191.894285,41.99310597653634
601,192.186067,42.18442378927163
602,192.463412,41.84354095349147
603,192.726399,41.42785867437121
604,193.055692,41.765355110461904
605,193.332146,42.18442378927163
606,193.621569,41.765355110461904
607,193.91722,41.42785867437121
608,194.229368,41.42785867437121
609,194.531999,41.42785867437121
610,194.884663,41.6537691369482
611,195.179601,41.38709157842804
612,195.592245,41.42785867437121
613,195.930634,41.01520004442034
614,196.221295,41.349334713299655
615,196.553364,41.765355110461904
616,196.925532,41.765355110461904
617,197.213601,41.42785867437121
