,time (s),surface tension (mN/m)
0,0.104407,41.83514345382547
1,0.32058,42.67109543277744
2,0.552192,42.26760203207637
3,0.744148,41.83514345382547
4,0.941308,42.46869364708599
5,1.191865,42.46869364708599
6,1.407485,41.83514345382547
7,1.599934,42.26760203207637
8,1.81152,41.83514345382547
9,2.042167,42.46869364708599
10,2.335354,42.67109543277744
11,2.564716,42.033840248160956
12,2.791526,42.033840248160956
13,3.023697,41.83514345382547
14,3.272312,41.83514345382547
15,3.57346,41.83514345382547
16,3.803264,42.26760203207637
17,4.030899,41.83514345382547
18,4.258444,41.83514345382547
19,4.509107,41.637727633237034
20,4.844004,41.83514345382547
21,5.074481,41.83514345382547
22,5.304212,42.46869364708599
23,5.533891,42.46869364708599
24,5.761847,41.83514345382547
25,6.032735,42.26760203207637
26,6.258773,42.26760203207637
27,6.46727,41.83514345382547
28,6.681184,41.97555771041338
29,6.895241,41.83514345382547
30,7.173562,41.83514345382547
31,7.407156,41.637727633237034
32,7.637239,41.637727633237034
33,7.865388,41.212079666553144
34,8.088062,42.033840248160956
35,8.379682,41.212079666553144
36,8.618882,41.83514345382547
37,8.841194,41.637727633237034
38,9.045837,41.637727633237034
39,9.246286,41.83514345382547
40,9.507976,42.26760203207637
41,9.712906,41.637727633237034
42,9.936588,41.637727633237034
43,10.177791,41.83514345382547
44,10.584256,42.033840248160956
45,10.812843,41.83514345382547
46,11.043501,41.212079666553144
47,11.27697,41.83514345382547
48,11.504043,42.033840248160956
49,11.790674,41.637727633237034
50,12.046531,41.637727633237034
51,12.277824,41.637727633237034
52,12.517055,41.212079666553144
53,12.754645,41.83514345382547
54,13.046605,41.83514345382547
55,13.28766,41.407148685219255
56,13.510279,41.83514345382547
57,13.736669,41.637727633237034
58,13.952987,41.637727633237034
59,14.236965,41.83514345382547
60,14.465541,41.83514345382547
61,14.688495,41.637727633237034
62,14.968725,41.018263135768954
63,15.198006,41.637727633237034
64,15.508566,41.83514345382547
65,15.708991,41.637727633237034
66,15.928767,41.83514345382547
67,16.151597,41.83514345382547
68,16.377451,42.033840248160956
69,16.668037,41.407148685219255
70,16.88825,41.212079666553144
71,17.079456,41.637727633237034
72,17.278899,41.212079666553144
73,17.51764,41.637727633237034
74,17.762307,41.83514345382547
75,17.966013,42.17457527551805
76,18.167797,41.637727633237034
77,18.393691,41.83514345382547
78,18.624456,41.83514345382547
79,18.921061,41.83514345382547
80,19.157238,41.637727633237034
81,19.399822,41.637727633237034
82,19.630625,42.06780953948351
83,19.861179,41.83514345382547
84,20.173362,41.83514345382547
85,20.404086,41.637727633237034
86,20.737297,41.637727633237034
87,20.960294,41.83514345382547
88,21.255754,41.83514345382547
89,21.463657,41.637727633237034
90,21.662307,41.637727633237034
91,21.871449,41.83514345382547
92,22.081609,41.018263135768954
93,22.398201,41.018263135768954
94,22.611036,41.83514345382547
95,22.84053,41.637727633237034
96,23.068991,41.637727633237034
97,23.299138,41.44158202029561
98,23.591173,41.018263135768954
99,23.827098,41.212079666553144
100,24.013009,41.212079666553144
101,24.217309,41.407148685219255
102,24.410458,41.637727633237034
103,24.650552,41.83514345382547
104,24.872569,41.637727633237034
105,25.119169,41.212079666553144
106,25.348011,41.018263135768954
107,25.598159,41.212079666553144
108,25.894876,41.212079666553144
109,26.12295,41.212079666553144
110,26.349881,41.83514345382547
111,26.603558,41.83514345382547
112,26.841596,42.26760203207637
113,27.144495,41.018263135768954
114,27.375502,41.83514345382547
115,27.626897,41.83514345382547
116,27.858327,41.637727633237034
117,28.084645,41.637727633237034
118,28.39946,41.83514345382547
119,28.627035,41.637727633237034
120,28.855219,41.637727633237034
121,29.063931,41.637727633237034
122,29.274262,41.018263135768954
123,29.539477,41.212079666553144
124,29.774982,41.407148685219255
125,29.987483,41.83514345382547
126,30.204887,41.212079666553144
127,30.424323,41.212079666553144
128,30.714523,41.83514345382547
129,31.084231,41.83514345382547
130,31.351964,41.83514345382547
131,31.630727,41.83514345382547
132,31.892475,41.83514345382547
133,32.088734,41.212079666553144
134,32.288479,41.212079666553144
135,32.48726,41.83514345382547
136,32.682254,41.637727633237034
137,32.883613,41.83514345382547
138,33.147184,41.637727633237034
139,33.368718,41.018263135768954
140,33.617447,41.212079666553144
141,33.848635,41.637727633237034
142,34.075551,41.637727633237034
143,34.368924,41.212079666553144
144,34.599126,41.83514345382547
145,34.828647,41.44158202029561
146,35.060311,41.637727633237034
147,35.311926,41.018263135768954
148,35.607784,41.212079666553144
149,35.853634,42.033840248160956
150,36.084492,41.212079666553144
151,36.331787,41.637727633237034
152,36.567876,41.83514345382547
153,36.864838,41.83514345382547
154,37.098312,41.637727633237034
155,37.355863,41.83514345382547
156,37.572316,41.212079666553144
157,37.779166,41.546456224683
158,38.07149,41.212079666553144
159,38.293931,41.212079666553144
160,38.523372,41.212079666553144
161,38.754053,41.212079666553144
162,38.983306,41.212079666553144
163,39.276525,41.637727633237034
164,39.489407,41.637727633237034
165,39.716646,41.212079666553144
166,39.936313,41.018263135768954
167,40.164227,41.212079666553144
168,40.434513,41.212079666553144
169,40.631879,41.637727633237034
170,40.822896,41.212079666553144
171,41.014494,41.212079666553144
172,41.210843,41.018263135768954
173,41.560093,41.637727633237034
174,41.781868,41.407148685219255
175,42.036431,41.83514345382547
176,42.329039,41.83514345382547
177,42.621198,41.407148685219255
178,42.848578,41.212079666553144
179,43.077757,41.018263135768954
180,43.312701,41.212079666553144
181,43.561159,41.212079666553144
182,43.841844,41.637727633237034
183,44.083658,41.212079666553144
184,44.331339,41.637727633237034
185,44.561846,41.212079666553144
186,44.777317,41.212079666553144
187,45.049566,41.212079666553144
188,45.26813,40.599299712403024
189,45.482302,41.637727633237034
190,45.706395,41.637727633237034
191,45.929303,41.212079666553144
192,46.223386,41.212079666553144
193,46.461401,41.018263135768954
194,46.687875,41.018263135768954
195,46.920574,41.018263135768954
196,47.139087,41.212079666553144
197,47.44195,41.212079666553144
198,47.632602,41.212079666553144
199,47.820191,41.212079666553144
200,48.025381,41.212079666553144
201,48.215886,41.637727633237034
202,48.412663,42.033840248160956
203,48.664989,41.212079666553144
204,48.882907,41.637727633237034
205,49.113046,41.83514345382547
206,49.343691,41.83514345382547
207,49.57564,41.407148685219255
208,49.86939,41.83514345382547
209,50.139422,41.407148685219255
210,50.370948,41.637727633237034
211,50.609344,41.407148685219255
212,50.847001,41.018263135768954
213,51.140412,41.212079666553144
214,51.370522,41.212079666553144
215,51.602145,41.212079666553144
216,51.878266,40.599299712403024
217,52.139972,41.212079666553144
218,52.426596,41.83514345382547
219,52.652426,41.212079666553144
220,52.870219,40.599299712403024
221,53.082068,41.212079666553144
222,53.290668,41.212079666553144
223,53.570829,41.018263135768954
224,53.801239,41.212079666553144
225,54.037877,41.212079666553144
226,54.270041,41.212079666553144
227,54.486941,41.212079666553144
228,54.778401,41.83514345382547
229,55.000241,41.212079666553144
230,55.229114,41.018263135768954
231,55.458423,41.407148685219255
232,55.69128,41.212079666553144
233,55.95004,41.212079666553144
234,56.147818,41.407148685219255
235,56.348681,41.212079666553144
236,56.543388,41.018263135768954
237,56.733576,41.407148685219255
238,56.940908,41.407148685219255
239,57.22098,41.83514345382547
240,57.457244,41.212079666553144
241,57.698208,41.407148685219255
242,57.949304,41.212079666553144
243,58.178076,41.407148685219255
244,58.460469,41.212079666553144
245,58.720143,41.212079666553144
246,58.962759,41.212079666553144
247,59.261982,41.018263135768954
248,59.570721,41.637727633237034
249,59.808381,41.018263135768954
250,60.038365,41.637727633237034
251,60.263611,41.018263135768954
252,60.485815,41.407148685219255
253,60.763523,41.212079666553144
254,60.965013,41.018263135768954
255,61.179536,40.79081638227776
256,61.39821,41.212079666553144
257,61.628892,41.212079666553144
258,61.920957,41.407148685219255
259,62.247721,41.407148685219255
260,62.524568,40.599299712403024
261,62.747866,40.599299712403024
262,63.032276,41.212079666553144
263,63.26885,41.212079666553144
264,63.458978,40.79081638227776
265,63.675238,41.407148685219255
266,63.87281,40.599299712403024
267,64.151085,41.212079666553144
268,64.378248,41.212079666553144
269,64.609472,41.212079666553144
270,64.836198,40.79081638227776
271,65.066198,41.407148685219255
272,65.35317,41.407148685219255
273,65.632146,40.79081638227776
274,65.879455,41.407148685219255
275,66.112837,41.212079666553144
276,66.340421,40.79081638227776
277,66.634346,41.83514345382547
278,66.867817,40.79081638227776
279,67.094955,41.407148685219255
280,67.323508,41.212079666553144
281,67.573988,41.407148685219255
282,67.856442,40.79081638227776
283,68.094885,41.407148685219255
284,68.308195,40.79081638227776
285,68.5106,41.407148685219255
286,68.728035,41.212079666553144
287,69.014588,41.018263135768954
288,69.255179,41.407148685219255
289,69.484435,41.212079666553144
290,69.713904,41.018263135768954
291,69.943996,41.212079666553144
292,70.25932,40.599299712403024
293,70.487726,41.83514345382547
294,70.681323,41.212079666553144
295,70.905309,41.407148685219255
296,71.120729,41.212079666553144
297,71.367929,41.018263135768954
298,71.566137,41.212079666553144
299,71.758123,41.407148685219255
300,71.956019,41.407148685219255
301,72.152425,40.79081638227776
302,72.352041,41.407148685219255
303,72.733381,41.018263135768954
304,72.962312,41.407148685219255
305,73.194224,41.83514345382547
306,73.423749,41.546456224683
307,73.67256,41.212079666553144
308,73.972892,41.407148685219255
309,74.216913,41.212079666553144
310,74.445599,40.79081638227776
311,74.694942,41.212079666553144
312,74.924934,41.407148685219255
313,75.24156,40.79081638227776
314,75.467239,41.407148685219255
315,75.697506,40.599299712403024
316,75.918089,40.79081638227776
317,76.124953,41.212079666553144
318,76.384201,41.212079666553144
319,76.613496,41.407148685219255
320,76.844551,41.407148685219255
321,77.07186,42.033840248160956
322,77.294589,41.212079666553144
323,77.612382,41.212079666553144
324,77.844556,40.79081638227776
325,78.065629,41.407148685219255
326,78.264383,41.212079666553144
327,78.495371,41.212079666553144
328,78.739894,41.212079666553144
329,78.94335,41.407148685219255
330,79.137278,41.407148685219255
331,79.336068,41.212079666553144
332,79.559059,41.212079666553144
333,79.85047,41.212079666553144
334,80.089798,41.407148685219255
335,80.313144,40.79081638227776
336,80.541285,40.79081638227776
337,80.762838,41.212079666553144
338,81.056694,41.212079666553144
339,81.317711,41.407148685219255
340,81.548155,40.599299712403024
341,81.777727,40.599299712403024
342,82.027175,41.407148685219255
343,82.312895,41.60348079027833
344,82.568936,41.407148685219255
345,82.820331,41.546456224683
346,83.180668,41.407148685219255
347,83.457755,41.407148685219255
348,83.694214,41.407148685219255
349,83.901881,41.407148685219255
350,84.121143,40.79081638227776
351,84.339446,40.599299712403024
352,84.647997,40.79081638227776
353,84.88314,41.212079666553144
354,85.113717,41.407148685219255
355,85.341289,41.407148685219255
356,85.56284,40.79081638227776
357,85.855953,40.79081638227776
358,86.101939,41.407148685219255
359,86.305423,41.018263135768954
360,86.510194,41.212079666553144
361,86.706053,41.018263135768954
362,86.947665,40.79081638227776
363,87.156535,41.83514345382547
364,87.353654,41.407148685219255
365,87.580184,41.212079666553144
366,87.829873,41.212079666553144
367,88.149143,41.212079666553144
368,88.373445,41.407148685219255
369,88.622818,40.599299712403024
370,88.864908,41.212079666553144
371,89.128029,40.79081638227776
372,89.428539,41.407148685219255
373,89.672647,41.212079666553144
374,89.921307,41.407148685219255
375,90.150809,40.79081638227776
376,90.381254,40.79081638227776
377,90.663445,40.79081638227776
378,90.898756,40.599299712403024
379,91.113358,41.407148685219255
380,91.315285,40.599299712403024
381,91.530655,40.79081638227776
382,91.822456,41.018263135768954
383,92.045759,41.212079666553144
384,92.275193,41.212079666553144
385,92.498466,40.599299712403024
386,92.776669,41.212079666553144
387,93.059534,41.212079666553144
388,93.391529,41.212079666553144
389,93.642261,40.79081638227776
390,93.842082,40.79081638227776
391,94.04298,40.79081638227776
392,94.293038,41.212079666553144
393,94.493749,40.599299712403024
394,94.720781,41.212079666553144
395,94.972331,41.407148685219255
396,95.201112,41.212079666553144
397,95.493317,41.212079666553144
398,95.746369,40.79081638227776
399,95.99437,40.599299712403024
400,96.229884,41.212079666553144
401,96.478816,40.79081638227776
402,96.789735,40.98356807486288
403,97.061046,41.212079666553144
404,97.30354,41.212079666553144
405,97.54162,41.212079666553144
406,97.77081,40.79081638227776
407,98.052965,41.212079666553144
408,98.28051,40.79081638227776
409,98.490552,40.79081638227776
410,98.705934,40.79081638227776
411,98.925744,41.212079666553144
412,99.241568,41.018263135768954
413,99.472947,40.79081638227776
414,99.703254,41.212079666553144
415,99.923597,41.407148685219255
416,100.139871,41.212079666553144
417,100.430034,41.407148685219255
418,100.677253,41.212079666553144
419,100.871691,41.407148685219255
420,101.068854,40.79081638227776
421,101.25831,41.212079666553144
422,101.506827,40.599299712403024
423,101.734992,41.212079666553144
424,101.96824,41.407148685219255
425,102.201783,40.79081638227776
426,102.427549,40.79081638227776
427,102.738942,41.407148685219255
428,102.991038,41.407148685219255
429,103.220534,41.212079666553144
430,103.454502,41.018263135768954
431,103.897135,41.407148685219255
432,104.119992,41.212079666553144
433,104.371778,41.212079666553144
434,104.619697,41.212079666553144
435,104.851928,41.407148685219255
436,105.130869,41.407148685219255
437,105.372184,41.407148685219255
438,105.599581,41.407148685219255
439,105.810951,41.407148685219255
440,106.018074,40.79081638227776
441,106.287186,41.212079666553144
442,106.540497,41.407148685219255
443,106.761157,41.407148685219255
444,106.980774,41.212079666553144
445,107.207362,41.212079666553144
446,107.509867,40.79081638227776
447,107.728388,41.407148685219255
448,107.96211,41.212079666553144
449,108.150695,41.407148685219255
450,108.340174,41.212079666553144
451,108.569211,40.79081638227776
452,108.813045,41.60348079027833
453,109.005521,41.212079666553144
454,109.233473,40.79081638227776
455,109.465594,41.407148685219255
456,109.755354,40.79081638227776
457,109.986012,40.79081638227776
458,110.237679,41.212079666553144
459,110.479135,40.599299712403024
460,110.720476,41.212079666553144
461,111.036733,40.79081638227776
462,111.262033,41.212079666553144
463,111.551691,40.79081638227776
464,111.796629,41.212079666553144
465,112.112165,40.79081638227776
466,112.368092,40.599299712403024
467,112.598354,41.407148685219255
468,112.826334,41.018263135768954
469,113.03867,40.79081638227776
470,113.298941,40.79081638227776
471,113.514238,40.599299712403024
472,113.763067,41.212079666553144
473,113.990416,41.407148685219255
474,114.42827,40.79081638227776
475,114.661542,40.79081638227776
476,114.896985,41.407148685219255
477,115.093369,41.212079666553144
478,115.285484,40.599299712403024
479,115.537439,40.79081638227776
480,115.735603,41.212079666553144
481,115.947979,40.79081638227776
482,116.187984,40.79081638227776
483,116.419127,41.018263135768954
484,116.711331,40.79081638227776
485,116.931187,40.79081638227776
486,117.170516,41.018263135768954
487,117.411688,40.79081638227776
488,117.650659,41.407148685219255
489,117.963548,40.79081638227776
490,118.193345,40.599299712403024
491,118.425761,41.212079666553144
492,118.653854,40.79081638227776
493,118.885461,40.79081638227776
494,119.167532,40.599299712403024
495,119.409407,40.599299712403024
496,119.656997,41.407148685219255
497,119.906825,42.033840248160956
498,120.139344,41.407148685219255
499,120.422639,41.407148685219255
500,120.648734,41.018263135768954
501,120.856915,41.212079666553144
502,121.06143,40.599299712403024
503,121.280596,41.018263135768954
504,121.58285,41.407148685219255
505,121.812723,41.407148685219255
506,122.032294,41.407148685219255
507,122.262885,41.212079666553144
508,122.483167,40.599299712403024
509,122.772939,40.599299712403024
510,122.985812,41.212079666553144
511,123.182713,41.407148685219255
512,123.390028,40.79081638227776
513,123.58778,40.599299712403024
514,123.865063,41.212079666553144
515,124.105998,41.407148685219255
516,124.356033,41.212079666553144
517,124.606461,41.407148685219255
518,124.92862,40.79081638227776
519,125.189934,41.407148685219255
520,125.42209,40.79081638227776
521,125.653367,40.599299712403024
522,125.900232,40.79081638227776
523,126.185012,40.79081638227776
524,126.443985,40.79081638227776
525,126.694141,41.212079666553144
526,126.945528,40.79081638227776
527,127.183487,41.018263135768954
528,127.473238,40.79081638227776
529,127.714723,40.79081638227776
530,127.927251,41.407148685219255
531,128.130814,40.599299712403024
532,128.349601,41.407148685219255
533,128.633063,40.599299712403024
534,128.862623,40.599299712403024
535,129.080078,40.599299712403024
536,129.300142,41.212079666553144
537,129.523591,40.599299712403024
538,129.824204,40.79081638227776
539,130.065484,41.407148685219255
540,130.262673,40.599299712403024
541,130.459083,40.79081638227776
542,130.658885,40.599299712403024
543,130.933914,40.79081638227776
544,131.160362,40.79081638227776
545,131.39212,40.599299712403024
546,131.623445,40.79081638227776
547,131.853138,41.212079666553144
548,132.139642,41.212079666553144
549,132.37153,41.212079666553144
550,132.609046,41.407148685219255
551,132.858981,41.212079666553144
552,133.0836,41.212079666553144
553,133.378835,40.79081638227776
554,133.629732,40.79081638227776
555,133.866833,40.79081638227776
556,134.106502,41.212079666553144
557,134.336763,41.407148685219255
558,134.620706,41.407148685219255
559,134.876295,40.599299712403024
560,135.128643,41.212079666553144
561,135.334992,40.79081638227776
562,135.545367,41.212079666553144
563,135.841098,40.79081638227776
564,136.079012,40.599299712403024
565,136.300288,40.98356807486288
566,136.519359,40.79081638227776
567,136.746316,41.212079666553144
568,137.031281,40.599299712403024
569,137.24505,41.212079666553144
570,137.439549,40.599299712403024
571,137.636162,40.79081638227776
572,137.825643,40.79081638227776
573,138.027477,41.407148685219255
574,138.287342,40.79081638227776
575,138.514435,40.79081638227776
576,138.743589,40.79081638227776
577,138.975527,40.98356807486288
578,139.201567,40.79081638227776
579,139.494942,41.212079666553144
580,139.727975,41.212079666553144
581,139.954557,40.79081638227776
582,140.197465,40.79081638227776
583,140.436777,40.79081638227776
584,140.730807,41.212079666553144
585,141.022145,40.98356807486288
586,141.260406,41.212079666553144
587,141.502786,40.79081638227776
588,141.792298,40.599299712403024
589,142.020611,40.599299712403024
590,142.230828,40.79081638227776
591,142.441325,40.599299712403024
592,142.638595,41.212079666553144
593,142.921041,41.212079666553144
594,143.158951,40.79081638227776
595,143.397626,41.212079666553144
596,143.617473,41.212079666553144
597,143.844474,41.212079666553144
598,144.127957,40.599299712403024
599,144.356971,40.18464346865073
600,144.578929,41.407148685219255
601,144.829988,40.79081638227776
602,145.03464,40.79081638227776
603,145.378276,40.599299712403024
604,145.588637,40.599299712403024
605,145.785471,40.599299712403024
606,145.984759,41.407148685219255
607,146.217137,41.212079666553144
608,146.497472,41.212079666553144
609,146.740542,41.407148685219255
610,146.972352,40.79081638227776
