,time (s),surface tension (mN/m)
0,0.0,41.33555327642771
1,0.215507,40.085678990647764
2,0.433322,41.33555327642771
3,0.645103,40.57535766316101
4,0.829618,40.27994058519877
5,1.088131,40.903238008481466
6,1.335916,41.33555327642771
7,1.547728,41.33555327642771
8,1.735464,41.740374791182866
9,1.935339,40.47549084626321
10,2.162319,40.903238008481466
11,2.361839,40.77303749383929
12,2.547244,40.903238008481466
13,2.778395,40.903238008481466
14,3.035448,40.50862822617528
15,3.348956,41.53728929742582
16,3.592753,41.53728929742582
17,3.827322,40.27994058519877
18,4.060178,40.085678990647764
19,4.26648,40.47549084626321
20,4.505151,41.30312265199178
21,4.700376,40.27994058519877
22,4.907021,41.53728929742582
23,5.117015,40.903238008481466
24,5.349015,40.903238008481466
25,5.593407,40.27994058519877
26,5.787393,40.70527945707627
27,5.987216,40.903238008481466
28,6.18635,41.10251524543979
29,6.364031,40.27994058519877
30,6.586725,40.27994058519877
31,6.87452,40.903238008481466
32,7.140579,40.50862822617528
33,7.371363,40.903238008481466
34,7.60268,40.903238008481466
35,7.808135,40.70527945707627
36,8.058571,40.57535766316101
37,8.26503,40.903238008481466
38,8.452083,40.903238008481466
39,8.653734,40.27994058519877
40,8.878409,40.27994058519877
41,9.145186,40.903238008481466
42,9.33671,40.47549084626321
43,9.536492,40.903238008481466
44,9.724422,39.66718420453914
45,9.918414,40.085678990647764
46,10.110967,40.27994058519877
47,10.375071,41.53728929742582
48,10.615607,40.27994058519877
49,10.85531,40.903238008481466
50,11.106591,40.47549084626321
51,11.336527,40.27994058519877
52,11.609536,40.47549084626321
53,11.818291,40.903238008481466
54,12.026125,41.10251524543979
55,12.210466,40.47549084626321
56,12.408099,40.903238008481466
57,12.678087,40.903238008481466
58,12.894603,40.903238008481466
59,13.117839,40.37898594745279
60,13.309484,40.27994058519877
61,13.506596,40.70527945707627
62,13.737349,40.47549084626321
63,13.930179,40.47549084626321
64,14.14136,40.903238008481466
65,14.387249,40.085678990647764
66,14.617981,40.47549084626321
67,14.908008,40.47549084626321
68,15.1601,40.47549084626321
69,15.37436,40.27994058519877
70,15.58548,40.903238008481466
71,15.803172,40.903238008481466
72,16.035293,40.27994058519877
73,16.248148,40.903238008481466
74,16.457798,40.70527945707627
75,16.700873,40.47549084626321
76,16.888556,41.30312265199178
77,17.118066,40.27994058519877
78,17.315822,40.47549084626321
79,17.50251,39.85908684101632
80,17.682194,40.27994058519877
81,17.914437,40.27994058519877
82,18.187082,40.47549084626321
83,18.434972,41.10251524543979
84,18.678127,40.27994058519877
85,18.918017,40.47549084626321
86,19.129035,40.47549084626321
87,19.376016,40.903238008481466
88,19.603827,40.27994058519877
89,19.79364,40.27994058519877
90,20.004738,41.10251524543979
91,20.217065,41.10251524543979
92,20.566119,40.05225976440594
93,20.757812,40.47549084626321
94,20.947192,41.10251524543979
95,21.140883,41.10251524543979
96,21.341069,40.47549084626321
97,21.530506,40.05225976440594
98,21.811609,40.47549084626321
99,22.071013,40.672340957826364
100,22.30887,40.47549084626321
101,22.572437,39.66718420453914
102,22.804841,39.85908684101632
103,23.051536,39.85908684101632
104,23.263764,40.47549084626321
105,23.468256,41.94482155067467
106,23.697969,40.27994058519877
107,23.910563,40.672340957826364
108,24.172358,40.47549084626321
109,24.401945,41.10251524543979
110,24.595127,41.30312265199178
111,24.78822,39.85908684101632
112,24.97631,39.85908684101632
113,25.166708,41.30312265199178
114,25.381452,39.85908684101632
115,25.606032,40.47549084626321
116,25.85261,40.47549084626321
117,26.102244,40.05225976440594
118,26.351251,39.85908684101632
119,26.650904,39.85908684101632
120,26.895098,39.85908684101632
121,27.102732,40.27994058519877
122,27.310206,40.47549084626321
123,27.502717,40.05225976440594
124,27.761984,41.10251524543979
125,27.986702,39.66718420453914
126,28.187383,40.47549084626321
127,28.37501,40.47549084626321
128,28.561284,40.672340957826364
129,28.753073,40.47549084626321
130,28.985502,40.47549084626321
131,29.175575,40.47549084626321
132,29.433716,39.85908684101632
133,29.673636,39.66718420453914
134,29.930506,40.47549084626321
135,30.217274,40.47549084626321
136,30.464043,40.27994058519877
137,30.783466,40.672340957826364
138,30.987353,40.05225976440594
139,31.17363,40.47549084626321
140,31.418156,40.47549084626321
141,31.653306,39.85908684101632
142,31.868459,40.672340957826364
143,32.07821,40.903238008481466
144,32.278902,40.05225976440594
145,32.50719,40.903238008481466
146,32.702194,40.27994058519877
147,32.895932,40.47549084626321
148,33.123007,40.47549084626321
149,33.361283,40.47549084626321
150,33.660104,40.47549084626321
151,33.923664,40.47549084626321
152,34.182379,40.672340957826364
153,34.392268,40.05225976440594
154,34.604727,40.27994058519877
155,34.869697,40.672340957826364
156,35.066443,40.05225976440594
157,35.280064,41.10251524543979
158,35.500586,39.85908684101632
159,35.707302,40.05225976440594
160,35.937335,41.10251524543979
161,36.132842,40.47549084626321
162,36.321761,39.53957641118478
163,36.519847,39.85908684101632
164,36.721826,40.47549084626321
165,36.992436,40.47549084626321
166,37.233876,40.672340957826364
167,37.468114,39.85908684101632
168,37.711745,40.8705022207517
169,37.961291,40.47549084626321
170,38.233983,39.85908684101632
171,38.443785,39.53957641118478
172,38.634928,39.85908684101632
173,38.840828,39.85908684101632
174,39.049473,40.47549084626321
175,39.315363,40.05225976440594
176,39.504844,40.672340957826364
177,39.691703,40.47549084626321
178,39.881563,40.05225976440594
179,40.071449,40.47549084626321
180,40.259682,40.47549084626321
181,40.489746,40.47549084626321
182,40.70972,40.8705022207517
183,41.122847,39.442667257579615
184,41.409142,40.47549084626321
185,41.692445,40.27994058519877
186,41.911939,39.442667257579615
187,42.118441,40.05225976440594
188,42.324987,40.05225976440594
189,42.524701,40.05225976440594
190,42.806167,40.05225976440594
191,43.039227,40.05225976440594
192,43.265629,40.47549084626321
193,43.46547,40.05225976440594
194,43.668323,39.85908684101632
195,43.917037,40.05225976440594
196,44.124012,40.672340957826364
197,44.306859,40.8705022207517
198,44.508034,39.85908684101632
199,44.769456,40.05225976440594
200,45.053768,40.47549084626321
201,45.292584,40.672340957826364
202,45.527537,40.05225976440594
203,45.755131,40.05225976440594
204,45.96048,40.672340957826364
205,46.219154,40.47549084626321
206,46.401593,40.47549084626321
207,46.605144,40.24671398064885
208,46.819089,39.442667257579615
209,47.036692,39.85908684101632
210,47.284009,40.47549084626321
211,47.482769,40.8705022207517
212,47.673957,40.672340957826364
213,47.863778,40.05225976440594
214,48.053406,39.85908684101632
215,48.246856,39.85908684101632
216,48.507888,40.672340957826364
217,48.749251,39.85908684101632
218,48.988864,39.85908684101632
219,49.218546,40.442460610490215
220,49.458494,40.05225976440594
221,49.770454,40.47549084626321
222,49.978473,40.24671398064885
223,50.163818,40.8705022207517
224,50.357106,39.73120086047036
225,50.56416,40.05225976440594
226,50.82478,39.633493378000836
227,51.01102,39.442667257579615
228,51.201367,40.672340957826364
229,51.458553,40.442460610490215
230,51.646069,39.73120086047036
231,51.878758,39.633493378000836
232,52.101468,40.05225976440594
233,52.364803,39.633493378000836
234,52.602126,40.05225976440594
235,52.852086,40.05225976440594
236,53.144146,39.442667257579615
237,53.371363,40.24671398064885
238,53.581729,39.633493378000836
239,53.794702,40.05225976440594
240,53.987157,40.24671398064885
241,54.233807,40.05225976440594
242,54.443579,39.315791305310604
243,54.648668,40.24671398064885
244,54.854301,40.24671398064885
245,55.04342,40.24671398064885
246,55.272948,40.24671398064885
247,55.465198,39.633493378000836
248,55.655179,39.633493378000836
249,55.878411,39.442667257579615
250,56.120745,40.672340957826364
251,56.410594,39.633493378000836
252,56.653126,39.633493378000836
253,56.884022,40.24671398064885
254,57.112541,40.05225976440594
255,57.3203,40.24671398064885
256,57.569589,40.8705022207517
257,57.76232,40.8705022207517
258,57.977166,40.442460610490215
259,58.187655,39.82558250670216
260,58.407896,39.633493378000836
261,58.635264,39.633493378000836
262,58.825131,39.633493378000836
263,59.01241,40.442460610490215
264,59.208837,39.633493378000836
265,59.394215,39.82558250670216
266,59.607013,40.24671398064885
267,59.89782,40.63951089089248
268,60.162786,39.82558250670216
269,60.415155,40.442460610490215
270,60.639261,40.442460610490215
271,60.869384,40.24671398064885
272,61.161694,39.633493378000836
273,61.37786,40.05225976440594
274,61.642208,39.442667257579615
275,61.864391,41.70837451383799
276,62.125838,39.633493378000836
277,62.378322,39.633493378000836
278,62.579318,40.24671398064885
279,62.772448,40.05225976440594
280,62.963059,39.633493378000836
281,63.15793,39.633493378000836
282,63.338086,39.633493378000836
283,63.609427,40.442460610490215
284,63.856822,40.24671398064885
285,64.108615,39.82558250670216
286,64.348855,40.05225976440594
287,64.588316,39.82558250670216
288,64.841641,39.82558250670216
289,65.056316,39.82558250670216
290,65.251894,40.24671398064885
291,65.444699,39.633493378000836
292,65.656832,39.82558250670216
293,65.907045,39.633493378000836
294,66.09801,40.442460610490215
295,66.28583,39.633493378000836
296,66.47376,40.442460610490215
297,66.672237,40.24671398064885
298,66.86028,40.24671398064885
299,67.078141,39.82558250670216
300,67.288071,39.633493378000836
301,67.514895,40.24671398064885
302,67.763351,39.82558250670216
303,68.000293,40.24671398064885
304,68.282213,40.24671398064885
305,68.493009,39.633493378000836
306,68.702088,39.03063149356311
307,68.911425,39.82558250670216
308,69.097781,40.24671398064885
309,69.349716,40.442460610490215
310,69.5637,40.442460610490215
311,69.773665,40.442460610490215
312,69.962068,40.24671398064885
313,70.159942,39.633493378000836
314,70.393057,40.63951089089248
315,70.589473,39.82558250670216
316,70.777554,39.633493378000836
317,70.987232,39.82558250670216
318,71.219381,39.82558250670216
319,71.507164,39.633493378000836
320,71.750603,40.0189455873149
321,72.106261,40.0189455873149
322,72.313882,39.82558250670216
323,72.568564,40.442460610490215
324,72.780429,39.82558250670216
325,72.983657,39.82558250670216
326,73.21158,39.633493378000836
327,73.42767,39.633493378000836
328,73.690684,40.0189455873149
329,73.880282,39.82558250670216
330,74.075472,40.442460610490215
331,74.26344,39.82558250670216
332,74.449787,39.82558250670216
333,74.636625,39.82558250670216
334,74.905919,40.442460610490215
335,75.153183,40.442460610490215
336,75.406373,39.633493378000836
337,75.634391,39.82558250670216
338,75.874635,40.24671398064885
339,76.171969,40.24671398064885
340,76.396788,39.82558250670216
341,76.592494,40.0189455873149
342,76.792801,39.633493378000836
343,77.004435,39.03063149356311
344,77.275729,40.0189455873149
345,77.476207,39.82558250670216
346,77.666109,40.442460610490215
347,77.851587,39.82558250670216
348,78.040025,39.219140933863386
349,78.225155,39.633493378000836
350,78.448866,39.82558250670216
351,78.674751,40.442460610490215
352,78.93607,40.24671398064885
353,79.207371,40.0189455873149
354,79.497574,39.315791305310604
355,79.751315,39.633493378000836
356,79.95789,39.82558250670216
357,80.166274,39.69815372981428
358,80.371907,40.63951089089248
359,80.608622,39.69815372981428
360,80.832544,40.0189455873149
361,81.048665,39.09299367158928
362,81.269345,40.0189455873149
363,81.460846,39.50634064760583
364,81.687083,39.50634064760583
365,81.879212,39.69815372981428
366,82.07124,39.219140933863386
367,82.344786,39.82558250670216
368,82.565897,40.0189455873149
369,82.862016,40.0189455873149
370,83.111789,39.633493378000836
371,83.361733,39.219140933863386
372,83.613566,39.40889536667869
373,83.82361,40.0189455873149
374,84.073159,40.0189455873149
375,84.289044,39.69815372981428
376,84.538547,40.0189455873149
377,84.793701,40.0189455873149
378,84.990993,40.63951089089248
379,85.259097,40.0189455873149
380,85.476732,39.69815372981428
381,85.66161,39.40889536667869
382,85.849335,39.03063149356311
383,86.066727,39.40889536667869
384,86.361138,39.82558250670216
385,86.599067,39.69815372981428
386,86.830003,39.219140933863386
387,87.058056,40.0189455873149
388,87.278748,40.442460610490215
389,87.53917,39.69815372981428
390,87.753677,39.40889536667869
391,87.974333,39.40889536667869
392,88.162151,39.40889536667869
393,88.350121,39.40889536667869
394,88.58497,39.40889536667869
395,88.776839,40.0189455873149
396,88.999573,39.09299367158928
397,89.228463,39.59990556147793
398,89.482366,40.0189455873149
399,89.754814,40.0189455873149
400,89.9926,38.99660202046826
401,90.233733,39.40889536667869
402,90.481019,38.8091523019317
403,90.689205,39.18528957857614
404,90.951257,39.59990556147793
405,91.178095,39.40889536667869
406,91.378151,38.8091523019317
407,91.573126,40.837876176468704
408,91.766345,40.51051977157677
409,92.009577,39.59990556147793
410,92.215746,40.0189455873149
411,92.478701,39.59990556147793
412,92.664693,40.213593677624665
413,92.88309,38.498058147094525
414,93.15034,39.69815372981428
415,93.393933,39.40889536667869
416,93.592734,38.8091523019317
417,93.784214,39.40889536667869
418,94.05856,40.0856151051896
419,94.299686,39.69815372981428
420,94.52194,39.7921823998597
421,94.729463,39.7921823998597
422,94.937506,39.40889536667869
423,95.162512,39.59990556147793
424,95.455416,40.213593677624665
425,95.679391,39.59990556147793
426,95.875041,38.99660202046826
427,96.063349,39.7921823998597
428,96.249414,39.40889536667869
429,96.520955,40.213593677624665
430,96.769709,40.40953795097654
431,96.999338,39.40889536667869
432,97.238615,39.40889536667869
433,97.503263,39.59990556147793
434,97.76905,39.59990556147793
435,97.978061,39.985736876929835
436,98.172896,39.7921823998597
437,98.371252,39.7921823998597
438,98.5622,39.59990556147793
439,98.82191,39.28247272871629
440,99.051427,40.0189455873149
441,99.285541,39.59990556147793
442,99.525673,39.7921823998597
443,99.755321,39.28247272871629
444,100.042561,40.213593677624665
445,100.258022,40.0189455873149
446,100.48597,39.59990556147793
447,100.677309,39.18528957857614
448,100.868138,40.0189455873149
449,101.099135,39.18528957857614
450,101.29563,39.18528957857614
451,101.467862,39.7921823998597
452,101.739762,39.7921823998597
453,101.96559,39.47320827601121
454,102.252757,39.7921823998597
455,102.472797,40.213593677624665
456,102.719054,40.40953795097654
457,102.933455,40.213593677624665
458,103.139202,40.837876176468704
459,103.386753,40.0189455873149
460,103.587763,39.47320827601121
461,103.789322,39.47320827601121
462,103.978798,40.51051977157677
463,104.166465,39.59990556147793
464,104.354977,39.59990556147793
465,104.587442,39.89124152108235
466,104.777296,39.59990556147793
467,104.956388,39.7921823998597
468,105.18148,39.59990556147793
469,105.404924,39.09299367158928
470,105.676068,39.7921823998597
471,105.915397,39.59990556147793
472,106.145009,39.7921823998597
473,106.375209,39.59990556147793
474,106.607688,40.213593677624665
475,106.857731,39.47320827601121
476,107.069622,39.59990556147793
477,107.268695,40.40953795097654
478,107.484979,39.59990556147793
479,107.68869,39.59990556147793
480,107.935598,39.18528957857614
481,108.134004,39.7921823998597
482,108.32821,40.40953795097654
483,108.522758,40.213593677624665
484,108.71234,39.18528957857614
485,108.935322,39.7921823998597
486,109.236655,39.7921823998597
487,109.465762,39.7921823998597
488,109.694544,39.375225684603876
489,109.937143,39.985736876929835
490,110.172626,40.213593677624665
491,110.416455,39.375225684603876
492,110.635923,39.18528957857614
493,110.833809,39.985736876929835
494,111.043475,38.99660202046826
495,111.24576,39.05959388567729
496,111.49722,39.59990556147793
497,111.698076,39.56642115839325
498,111.891676,39.18528957857614
499,112.096137,39.7921823998597
500,112.286922,39.18528957857614
501,112.478675,39.18528957857614
502,112.753687,39.18528957857614
503,113.082649,39.7921823998597
504,113.308492,39.18528957857614
505,113.560211,39.249256736598106
506,113.851723,40.40953795097654
507,114.101155,39.7921823998597
508,114.308319,39.7921823998597
509,114.508801,38.99660202046826
510,114.728608,39.7921823998597
511,115.01895,39.18528957857614
512,115.230933,38.87118030742646
513,115.446162,39.18528957857614
514,115.645863,39.18528957857614
515,115.840412,39.18528957857614
516,116.07568,39.7921823998597
517,116.274329,39.7921823998597
518,116.501348,39.18528957857614
519,116.735847,39.7921823998597
520,116.982312,39.375225684603876
521,117.252901,39.375225684603876
522,117.485465,39.18528957857614
523,117.713648,39.18528957857614
524,117.924193,39.375225684603876
525,118.121458,39.18528957857614
526,118.383212,38.87118030742646
527,118.588764,39.18528957857614
528,118.776859,39.985736876929835
529,118.967381,39.985736876929835
530,119.157582,39.7921823998597
531,119.34858,39.18528957857614
532,119.578147,39.7921823998597
533,119.776966,39.18528957857614
534,120.001525,39.375225684603876
535,120.243868,38.99660202046826
536,120.491663,39.375225684603876
537,120.771135,39.375225684603876
538,121.014962,38.46422654164715
539,121.256152,39.7921823998597
540,121.490401,38.962672791663465
541,121.70131,39.05959388567729
542,121.950107,39.18528957857614
543,122.181656,39.56642115839325
544,122.393557,39.375225684603876
545,122.582985,39.47320827601121
546,122.775908,39.249256736598106
547,123.017147,40.18058010269856
548,123.28177,40.18058010269856
549,123.525158,39.56642115839325
550,123.769206,38.77504731088489
551,123.998442,39.375225684603876
552,124.282177,39.18528957857614
553,124.541413,39.56642115839325
554,124.763751,39.56642115839325
555,124.969605,39.56642115839325
556,125.177911,39.56642115839325
557,125.401421,39.7921823998597
558,125.620556,39.56642115839325
559,125.813829,38.77504731088489
560,126.009274,39.985736876929835
561,126.197308,39.375225684603876
562,126.387297,39.375225684603876
563,126.617635,39.56642115839325
564,126.803011,39.375225684603876
565,127.006137,39.15153963842592
566,127.215673,38.77504731088489
567,127.445326,39.375225684603876
568,127.744512,38.77504731088489
569,127.969125,39.375225684603876
570,128.225568,38.962672791663465
571,128.42918,38.962672791663465
572,128.645285,39.985736876929835
573,128.893074,39.56642115839325
574,129.123114,39.375225684603876
575,129.344728,38.962672791663465
576,129.603494,38.77504731088489
577,129.852646,39.375225684603876
578,130.098034,39.56642115839325
579,130.304173,39.75888693264908
580,130.49258,40.18058010269856
581,130.681497,38.87118030742646
582,130.892328,38.77504731088489
583,131.166801,39.7921823998597
584,131.427748,39.56642115839325
585,131.675551,39.375225684603876
586,131.91553,38.65034801662023
587,132.149229,38.65034801662023
588,132.433464,38.962672791663465
589,132.647012,38.962672791663465
590,132.838425,40.18058010269856
591,133.02687,39.56642115839325
592,133.212204,39.56642115839325
593,133.499356,39.375225684603876
594,133.727204,39.375225684603876
595,133.949661,38.369129048822785
596,134.191805,39.56642115839325
597,134.420286,39.15153963842592
598,134.71834,38.77504731088489
599,134.951726,38.962672791663465
600,135.192478,39.375225684603876
601,135.400472,39.56642115839325
602,135.614033,39.15153963842592
603,135.871109,38.962672791663465
604,136.06713,38.962672791663465
605,136.254561,39.75888693264908
606,136.444763,39.15153963842592
607,136.631161,39.56642115839325
608,136.805993,39.56642115839325
609,137.028616,39.56642115839325
610,137.262337,39.249256736598106
611,137.490575,39.75888693264908
612,137.721402,38.369129048822785
613,137.951961,39.56642115839325
614,138.234803,39.56642115839325
615,138.456868,39.15153963842592
616,138.66767,39.15153963842592
617,138.874965,38.962672791663465
618,139.081623,38.962672791663465
619,139.306273,39.952634054328506
620,139.516754,38.962672791663465
621,139.731085,39.56642115839325
