,time (s),surface tension (mN/m)
0,0.102351,44.374720100034935
1,0.343651,44.82701965816685
2,0.586785,45.03830350103919
3,0.818793,44.16725705837023
4,1.122261,45.03830350103919
5,1.359985,44.583518345277994
6,1.588148,44.82701965816685
7,1.824373,45.03830350103919
8,2.060971,44.16725705837023
9,2.353598,44.617089690027576
10,2.585917,44.82701965816685
11,2.821556,44.82701965816685
12,3.063158,44.82701965816685
13,3.287482,44.374720100034935
14,3.589605,45.03830350103919
15,3.831429,44.82701965816685
16,4.065842,45.03830350103919
17,4.294892,44.82701965816685
18,4.529204,45.19072623802871
19,4.826391,44.82701965816685
20,5.068903,44.374720100034935
21,5.312412,44.374720100034935
22,5.547829,44.52561061676152
23,5.795886,44.374720100034935
24,6.105432,44.374720100034935
25,6.340326,44.16725705837023
26,6.571142,44.16725705837023
27,6.826036,44.374720100034935
28,7.051092,43.518286538501904
29,7.351819,44.16725705837023
30,7.603245,44.16725705837023
31,7.848385,44.583518345277994
32,8.073055,43.92703416711195
33,8.300232,44.374720100034935
34,8.598933,44.82701965816685
35,8.853607,44.16725705837023
36,9.075218,44.374720100034935
37,9.305845,45.25095262345966
38,9.532408,44.374720100034935
39,9.847598,44.583518345277994
40,10.086753,44.374720100034935
41,10.348368,44.374720100034935
42,10.645298,44.16725705837023
43,10.953571,43.72200742655804
44,11.207065,44.283438663378405
45,11.455248,44.16725705837023
46,11.687137,44.374720100034935
47,11.922548,44.16725705837023
48,12.234948,44.16725705837023
49,12.477565,44.374720100034935
50,12.710719,44.374720100034935
51,12.956641,44.583518345277994
52,13.19582,44.583518345277994
53,13.517885,44.16725705837023
54,13.782978,44.16725705837023
55,14.007068,44.16725705837023
56,14.251088,44.374720100034935
57,14.485553,44.374720100034935
58,14.783637,43.72200742655804
59,15.033541,44.374720100034935
60,15.270621,44.374720100034935
61,15.512934,44.16725705837023
62,15.761984,44.374720100034935
63,16.064813,44.16725705837023
64,16.324392,44.374720100034935
65,16.552156,43.92703416711195
66,16.793515,44.374720100034935
67,17.033185,44.583518345277994
68,17.366457,44.583518345277994
69,17.618864,44.16725705837023
70,17.845099,44.16725705837023
71,18.118185,44.283438663378405
72,18.35412,44.734756921643516
73,18.672257,44.374720100034935
74,18.914666,44.945249263354235
75,19.144814,44.374720100034935
76,19.381968,44.374720100034935
77,19.622469,44.734756921643516
78,19.939071,44.374720100034935
79,20.189875,44.374720100034935
80,20.438667,44.374720100034935
81,20.790212,44.16725705837023
82,21.125685,44.374720100034935
83,21.373552,44.13337770584047
84,21.603271,44.583518345277994
85,21.857786,44.374720100034935
86,22.08386,44.374720100034935
87,22.385986,44.16725705837023
88,22.652509,43.72200742655804
89,22.888526,43.92703416711195
90,23.123799,44.07674842667517
91,23.366946,43.72200742655804
92,23.68602,43.72200742655804
93,23.944419,43.92703416711195
94,24.175659,43.92703416711195
95,24.406028,43.518286538501904
96,24.632593,44.283438663378405
97,24.936531,44.374720100034935
98,25.177272,44.374720100034935
99,25.4058,44.374720100034935
100,25.633599,44.583518345277994
101,25.868795,43.92703416711195
102,26.168356,44.374720100034935
103,26.430513,44.16725705837023
104,26.683081,44.374720100034935
105,26.911267,44.16725705837023
106,27.143298,43.72200742655804
107,27.446556,44.734756921643516
108,27.696119,42.77624997036411
109,27.93915,44.374720100034935
110,28.180505,43.72200742655804
111,28.425296,44.374720100034935
112,28.728087,43.72200742655804
113,28.977757,44.734756921643516
114,29.219432,44.374720100034935
115,29.465726,43.92703416711195
116,29.709439,43.92703416711195
117,30.041056,44.374720100034935
118,30.276885,44.16725705837023
119,30.503071,44.16725705837023
120,30.749219,44.583518345277994
121,30.980689,43.92703416711195
122,31.397459,44.374720100034935
123,31.653514,44.283438663378405
124,31.899775,44.374720100034935
125,32.135291,44.374720100034935
126,32.366897,43.72200742655804
127,32.670203,44.374720100034935
128,32.924193,43.518286538501904
129,33.154731,43.72200742655804
130,33.381033,44.374720100034935
131,33.624456,43.72200742655804
132,33.926158,44.374720100034935
133,34.185108,43.72200742655804
134,34.430591,44.374720100034935
135,34.658562,43.72200742655804
136,34.889922,44.374720100034935
137,35.192211,43.92703416711195
138,35.448283,44.374720100034935
139,35.703404,43.92703416711195
140,35.942472,43.92703416711195
141,36.179574,43.518286538501904
142,36.502129,43.92703416711195
143,36.750981,44.16725705837023
144,37.006926,44.374720100034935
145,37.244639,43.92703416711195
146,37.484955,43.72200742655804
147,37.79719,43.72200742655804
148,38.072125,43.72200742655804
149,38.311382,43.72200742655804
150,38.555343,43.72200742655804
151,38.869411,43.72200742655804
152,39.108625,43.72200742655804
153,39.362093,44.16725705837023
154,39.606911,43.518286538501904
155,39.849492,43.72200742655804
156,40.152291,44.374720100034935
157,40.403217,43.72200742655804
158,40.636257,43.72200742655804
159,40.897145,43.92703416711195
160,41.128445,44.07674842667517
161,41.461805,43.72200742655804
162,41.809571,43.72200742655804
163,42.049739,43.92703416711195
164,42.299501,43.72200742655804
165,42.632643,43.92703416711195
166,42.887139,43.72200742655804
167,43.137815,43.518286538501904
168,43.36772,43.72200742655804
169,43.59454,43.92703416711195
170,43.89481,43.92703416711195
171,44.1368,44.374720100034935
172,44.390981,43.92703416711195
173,44.639998,43.72200742655804
174,44.880243,44.583518345277994
175,45.194515,43.92703416711195
176,45.441072,43.72200742655804
177,45.682694,43.72200742655804
178,45.933674,43.92703416711195
179,46.18506,43.518286538501904
180,46.522717,43.92703416711195
181,46.823052,43.92703416711195
182,47.0823,43.72200742655804
183,47.337161,44.374720100034935
184,47.658919,43.518286538501904
185,47.968185,43.72200742655804
186,48.195415,44.07674842667517
187,48.439124,43.72200742655804
188,48.782,43.92703416711195
189,49.021224,43.92703416711195
190,49.279887,43.72200742655804
191,49.518349,43.92703416711195
192,49.901295,43.92703416711195
193,50.150013,43.72200742655804
194,50.379755,43.72200742655804
195,50.611602,43.92703416711195
196,50.848336,43.72200742655804
197,51.149977,43.92703416711195
198,51.383443,43.92703416711195
199,51.62153,43.92703416711195
200,51.892496,43.92703416711195
201,52.271277,43.92703416711195
202,52.513066,43.72200742655804
203,52.74622,43.28129046552918
204,52.992207,43.92703416711195
205,53.222954,44.16725705837023
206,53.523362,43.92703416711195
207,53.754679,43.92703416711195
208,53.993717,43.518286538501904
209,54.245114,43.72200742655804
210,54.502593,43.72200742655804
211,54.794319,43.92703416711195
212,55.040142,43.72200742655804
213,55.272326,43.72200742655804
214,55.495034,43.518286538501904
215,55.791495,44.283438663378405
216,56.10734,43.72200742655804
217,56.37218,44.07674842667517
218,56.605143,44.374720100034935
219,56.837733,43.92703416711195
220,57.087298,43.72200742655804
221,57.402671,43.72200742655804
222,57.690282,43.07995767756526
223,57.916107,43.07995767756526
224,58.15399,43.28129046552918
225,58.391683,43.72200742655804
226,58.703773,43.72200742655804
227,58.94351,43.92703416711195
228,59.182308,43.518286538501904
229,59.452949,43.518286538501904
230,59.696868,44.16725705837023
231,60.021697,43.518286538501904
232,60.278028,43.518286538501904
233,60.531587,43.92703416711195
234,60.750984,43.518286538501904
235,61.113242,43.72200742655804
236,61.367338,43.518286538501904
237,61.62444,44.283438663378405
238,61.863003,43.72200742655804
239,62.103153,43.518286538501904
240,62.470626,43.07995767756526
241,62.722691,44.283438663378405
242,62.9554,43.07995767756526
243,63.187107,43.07995767756526
244,63.427701,43.92703416711195
245,63.751632,43.518286538501904
246,63.981464,43.518286538501904
247,64.233872,43.07995767756526
248,64.475122,43.28129046552918
249,64.719188,43.518286538501904
250,65.016803,44.374720100034935
251,65.274226,43.72200742655804
252,65.498131,43.72200742655804
253,65.733413,43.518286538501904
254,65.98399,43.518286538501904
255,66.297195,43.518286538501904
256,66.526557,43.518286538501904
257,66.758067,43.518286538501904
258,66.997647,43.518286538501904
259,67.24164,43.518286538501904
260,67.575827,43.518286538501904
261,67.873088,43.72200742655804
262,68.107505,43.92703416711195
263,68.36174,44.16725705837023
264,68.669895,43.72200742655804
265,68.910326,43.92703416711195
266,69.168279,43.72200742655804
267,69.46569,43.72200742655804
268,69.774736,43.518286538501904
269,70.010928,43.72200742655804
270,70.286738,43.07995767756526
271,70.534182,43.518286538501904
272,70.767201,43.72200742655804
273,71.071755,43.72200742655804
274,71.319641,44.374720100034935
275,71.559479,43.518286538501904
276,71.799697,43.92703416711195
277,72.03595,43.518286538501904
278,72.343902,43.07995767756526
279,72.587043,44.16725705837023
280,72.91486,43.518286538501904
281,73.200353,43.72200742655804
282,73.50602,43.518286538501904
283,73.76583,43.518286538501904
284,74.061436,43.72200742655804
285,74.295967,43.07995767756526
286,74.659749,43.07995767756526
287,74.924653,43.518286538501904
288,75.170663,43.28129046552918
289,75.396242,43.518286538501904
290,75.634105,43.07995767756526
291,75.940846,43.28129046552918
292,76.216812,43.518286538501904
293,76.461809,43.92703416711195
294,76.71454,43.518286538501904
295,77.045561,43.518286538501904
296,77.296016,43.518286538501904
297,77.539088,42.87990209652607
298,77.779171,43.72200742655804
299,78.034414,43.72200742655804
300,78.340176,43.07995767756526
301,78.563574,42.87990209652607
302,78.822837,43.518286538501904
303,79.059857,43.72200742655804
304,79.307363,43.518286538501904
305,79.636172,43.518286538501904
306,79.877457,43.518286538501904
307,80.120028,43.72200742655804
308,80.353897,43.518286538501904
309,80.727657,43.518286538501904
310,80.973997,43.518286538501904
311,81.230888,44.374720100034935
312,81.478402,43.72200742655804
313,81.813002,44.374720100034935
314,82.058233,43.518286538501904
315,82.293466,43.518286538501904
316,82.539284,43.518286538501904
317,82.791591,42.87990209652607
318,83.098879,43.518286538501904
319,83.387745,43.518286538501904
320,83.667956,43.518286538501904
321,83.911348,43.72200742655804
322,84.254329,43.72200742655804
323,84.504997,43.92703416711195
324,84.740604,43.518286538501904
325,85.013398,44.16725705837023
326,85.239939,43.518286538501904
327,85.568086,43.518286538501904
328,85.822375,42.87990209652607
329,86.063787,43.518286538501904
330,86.325242,42.87990209652607
331,86.679792,43.518286538501904
332,86.957847,43.518286538501904
333,87.218068,44.374720100034935
334,87.468871,43.518286538501904
335,87.783568,43.07995767756526
336,88.059718,43.07995767756526
337,88.307741,43.72200742655804
338,88.542329,43.518286538501904
339,88.765044,42.87990209652607
340,89.070266,43.518286538501904
341,89.328128,43.518286538501904
342,89.565765,43.518286538501904
343,89.810827,43.518286538501904
344,90.056969,43.07995767756526
345,90.374889,43.07995767756526
346,90.627852,43.518286538501904
347,90.87094,43.518286538501904
348,91.111396,43.518286538501904
349,91.35209,43.07995767756526
350,91.680608,43.28129046552918
351,91.919616,43.518286538501904
352,92.15971,43.518286538501904
353,92.42418,42.87990209652607
354,92.673343,43.518286538501904
355,92.987511,43.871374637578405
356,93.255198,43.518286538501904
357,93.506602,43.518286538501904
358,94.108708,43.28129046552918
359,94.361865,43.518286538501904
360,94.594913,43.518286538501904
361,94.840502,43.72200742655804
362,95.089258,43.518286538501904
363,95.404266,43.518286538501904
364,95.65974,43.871374637578405
365,95.933805,43.518286538501904
366,96.176724,43.72200742655804
367,96.490882,43.518286538501904
368,96.721189,43.518286538501904
369,96.995331,43.518286538501904
370,97.2387,42.87990209652607
371,97.488617,43.518286538501904
372,97.785079,43.518286538501904
373,98.058626,43.518286538501904
374,98.312176,43.518286538501904
375,98.622881,43.518286538501904
376,98.950198,43.518286538501904
377,99.206881,43.518286538501904
378,99.463376,43.518286538501904
379,99.69444,43.518286538501904
380,99.940917,43.72200742655804
381,100.262203,43.72200742655804
382,100.506442,44.16725705837023
383,100.750431,43.518286538501904
384,100.981465,43.518286538501904
385,101.211695,43.518286538501904
386,101.534483,43.518286538501904
387,101.797705,43.518286538501904
388,102.037918,43.518286538501904
389,102.317643,43.518286538501904
390,102.618398,43.518286538501904
391,102.872739,43.518286538501904
392,103.175389,43.518286538501904
393,103.405458,43.518286538501904
394,103.741706,43.07995767756526
395,103.972058,42.87990209652607
396,104.224111,43.518286538501904
397,104.530391,43.31586066645581
398,104.861958,43.518286538501904
399,105.112853,43.07995767756526
400,105.34248,42.87990209652607
401,105.599898,43.518286538501904
402,105.836416,43.518286538501904
403,106.129151,43.07995767756526
404,106.388322,43.518286538501904
405,106.638509,43.518286538501904
406,106.877199,42.87990209652607
407,107.129138,43.518286538501904
408,107.439889,43.72200742655804
409,107.709859,43.518286538501904
410,107.938149,42.87990209652607
411,108.188611,42.87990209652607
412,108.434656,43.518286538501904
413,108.736674,43.72200742655804
414,108.972096,43.518286538501904
415,109.210721,43.518286538501904
416,109.444049,43.518286538501904
417,109.691596,42.87990209652607
418,109.990448,43.28129046552918
419,110.240118,44.16725705837023
420,110.493459,43.07995767756526
421,110.733265,42.87990209652607
422,110.971908,42.87990209652607
423,111.291448,43.31586066645581
424,111.535806,43.518286538501904
425,111.780345,43.518286538501904
426,112.03135,42.87990209652607
427,112.271869,43.518286538501904
428,112.598084,42.87990209652607
429,112.865626,42.87990209652607
430,113.09398,43.31586066645581
431,113.341363,43.72200742655804
432,113.595334,42.87990209652607
433,113.923204,43.31586066645581
434,114.166395,43.31586066645581
435,114.409225,43.07995767756526
436,114.665064,42.681113158345845
437,115.074128,44.07674842667517
438,115.331581,42.87990209652607
439,115.578903,42.87990209652607
440,115.827835,43.72200742655804
441,116.058027,42.87990209652607
442,116.370941,43.518286538501904
443,116.621566,43.07995767756526
444,116.86257,43.72200742655804
445,117.102414,43.518286538501904
446,117.35437,43.518286538501904
447,117.650294,43.31586066645581
448,117.899911,43.07995767756526
449,118.132671,43.07995767756526
450,118.378137,43.518286538501904
451,118.607931,43.31586066645581
452,118.914539,43.518286538501904
453,119.188141,43.07995767756526
454,119.43404,43.07995767756526
455,119.691652,42.87990209652607
456,120.002407,42.87990209652607
457,120.243045,42.87990209652607
458,120.488321,43.07995767756526
459,120.723974,43.07995767756526
460,120.968268,42.87990209652607
461,121.269111,42.87990209652607
462,121.526606,42.87990209652607
463,121.772303,43.72200742655804
464,122.017137,43.31586066645581
465,122.265807,42.87990209652607
466,122.600236,43.07995767756526
467,122.847631,42.87990209652607
468,123.076735,42.87990209652607
469,123.308651,43.72200742655804
470,123.548144,43.518286538501904
471,123.851538,42.87990209652607
472,124.10658,43.07995767756526
473,124.331751,43.72200742655804
474,124.579106,43.518286538501904
475,124.829361,42.681113158345845
476,125.279253,42.87990209652607
477,125.542456,43.07995767756526
478,125.767757,43.07995767756526
479,126.022524,43.07995767756526
480,126.270813,43.518286538501904
481,126.605023,42.64608217952052
482,126.856323,43.07995767756526
483,127.109849,43.31586066645581
484,127.341132,43.72200742655804
485,127.676691,43.518286538501904
486,127.940211,42.87990209652607
487,128.190444,43.07995767756526
488,128.441306,43.07995767756526
489,128.748373,43.07995767756526
490,129.00469,43.518286538501904
491,129.252733,43.518286538501904
492,129.508598,43.518286538501904
493,129.835061,43.518286538501904
494,130.094526,43.518286538501904
495,130.333474,43.518286538501904
496,130.604022,42.87990209652607
497,130.94117,43.07995767756526
498,131.198009,43.72200742655804
499,131.449832,43.07995767756526
500,131.704094,43.07995767756526
501,131.935979,43.07995767756526
502,132.252554,43.72200742655804
503,132.515872,42.87990209652607
504,132.748044,42.87990209652607
505,132.983623,43.72200742655804
506,133.223268,42.681113158345845
507,133.542479,42.87990209652607
508,133.804716,43.07995767756526
509,134.06392,43.07995767756526
510,134.313392,43.518286538501904
511,134.634491,43.518286538501904
512,134.888562,43.07995767756526
513,135.123876,43.07995767756526
514,135.441953,43.72200742655804
515,135.866038,42.87990209652607
516,136.127363,43.07995767756526
517,136.376547,42.87990209652607
518,136.614557,43.07995767756526
519,136.843174,43.07995767756526
520,137.164891,42.681113158345845
521,137.422068,43.07995767756526
522,137.671675,43.07995767756526
523,137.925696,43.07995767756526
524,138.241788,42.87990209652607
525,138.516593,43.28129046552918
526,138.759022,42.87990209652607
527,139.004361,43.518286538501904
528,139.31458,43.518286538501904
529,139.562398,43.07995767756526
530,139.801516,42.87990209652607
531,140.041969,43.28129046552918
532,140.284487,43.07995767756526
533,140.591827,43.07995767756526
534,140.84528,43.518286538501904
535,141.096686,43.07995767756526
536,141.334705,42.87990209652607
537,141.579151,43.07995767756526
538,141.904098,42.87990209652607
539,142.168263,43.07995767756526
540,142.419111,43.07995767756526
541,142.73519,43.28129046552918
542,143.04737,43.518286538501904
543,143.314953,43.518286538501904
544,143.545587,43.07995767756526
545,143.794463,43.72200742655804
546,144.020648,43.07995767756526
547,144.317127,43.07995767756526
548,144.588321,42.87990209652607
549,144.820855,43.07995767756526
550,145.064568,43.07995767756526
551,145.31081,43.07995767756526
552,145.637774,43.07995767756526
553,145.918999,42.87990209652607
554,146.296192,43.28129046552918
555,146.548602,43.07995767756526
556,146.90757,43.07995767756526
557,147.136734,43.07995767756526
558,147.383203,43.07995767756526
559,147.630069,43.07995767756526
560,147.871409,43.07995767756526
561,148.189762,43.07995767756526
562,148.429227,43.07995767756526
563,148.676163,43.07995767756526
564,148.914093,43.42948937043672
565,149.152861,42.87990209652607
566,149.470291,43.07995767756526
567,149.810461,42.4483675655369
568,150.034366,42.64608217952052
569,150.272219,42.87990209652607
570,150.593583,42.87990209652607
571,150.869041,43.28129046552918
572,151.103063,42.87990209652607
573,151.34564,43.518286538501904
574,151.670578,43.518286538501904
575,151.934274,43.07995767756526
576,152.176587,42.87990209652607
577,152.422773,43.28129046552918
578,152.669084,42.87990209652607
579,152.963866,42.87990209652607
580,153.200767,43.518286538501904
581,153.441845,43.518286538501904
582,153.690762,42.4483675655369
583,153.94152,42.87990209652607
584,154.277512,43.07995767756526
585,154.524598,42.64608217952052
586,154.776458,43.07995767756526
587,155.024037,42.87990209652607
588,155.268643,43.28129046552918
589,155.563537,43.28129046552918
590,155.893834,42.4483675655369
591,156.124733,43.07995767756526
592,156.543676,42.87990209652607
593,156.906308,43.07995767756526
594,157.199123,43.07995767756526
595,157.429161,42.87990209652607
596,157.674096,42.87990209652607
597,157.974928,42.87990209652607
598,158.239725,43.07995767756526
599,158.472014,43.07995767756526
600,158.70969,43.07995767756526
601,158.952781,42.87990209652607
602,159.248942,42.87990209652607
603,159.487326,43.07995767756526
604,159.730566,43.07995767756526
605,159.977763,43.07995767756526
606,160.202414,43.07995767756526
607,160.531997,42.4483675655369
608,160.795358,43.07995767756526
609,161.044013,42.87990209652607
610,161.291846,42.64608217952052
611,161.59304,43.28129046552918
612,161.848137,43.07995767756526
613,162.105473,42.87990209652607
614,162.379171,43.07995767756526
615,162.685795,43.07995767756526
