,time (s),surface tension (mN/m)
0,0.114574,72.68648800036502
1,0.336507,71.14689633444974
2,0.59289,72.38142540875634
3,0.847048,70.52287541478778
4,1.152878,72.68648800036502
5,1.411822,70.22919457412944
6,1.644786,72.0991248476469
7,1.885871,72.0991248476469
8,2.139265,70.86801086842205
9,2.448285,71.44534462078725
10,2.673796,72.68648800036502
11,2.907351,72.38142540875634
12,3.137729,72.68648800036502
13,3.366097,72.38142540875634
14,3.6961,71.74551716199235
15,3.953139,71.44534462078725
16,4.203368,73.95324749044211
17,4.433558,72.38142540875634
18,4.673662,72.38142540875634
19,4.995826,71.44534462078725
20,5.248914,70.86801086842205
21,5.478015,72.68648800036502
22,5.712575,72.38142540875634
23,5.975163,71.44534462078725
24,6.296568,70.57197427552589
25,6.553208,71.74551716199235
26,6.777351,71.44534462078725
27,7.023933,71.79652739819207
28,7.258692,72.38142540875634
29,7.575415,72.38142540875634
30,7.816852,71.79652739819207
31,8.066178,71.44534462078725
32,8.300628,72.73877911032017
33,8.527361,70.86801086842205
34,8.870924,71.14689633444974
35,9.108125,71.44534462078725
36,9.347472,70.85015948745631
37,9.566206,71.44534462078725
38,9.806108,72.38142540875634
39,10.132367,71.79652739819207
40,10.468854,72.07812124897151
41,10.70963,72.38142540875634
42,10.961293,71.14689633444974
43,11.304398,71.14689633444974
44,11.552444,72.68648800036502
45,11.779643,72.07812124897151
46,12.018138,70.27763529221762
47,12.268244,71.44534462078725
48,12.603401,72.07812124897151
49,12.852882,73.6413969373569
50,13.084656,71.4956741710692
51,13.30642,72.07812124897151
52,13.551471,72.07812124897151
53,13.872133,71.44534462078725
54,14.103413,72.07812124897151
55,14.333525,70.86801086842205
56,14.564965,71.44534462078725
57,14.809941,72.99332225170508
58,15.105314,70.86801086842205
59,15.352623,70.85015948745631
60,15.584442,71.79652739819207
61,15.827018,71.74551716199235
62,16.067303,71.44534462078725
63,16.392197,71.44534462078725
64,16.640811,72.07812124897151
65,16.881182,72.38142540875634
66,17.130269,72.07812124897151
67,17.359398,72.07812124897151
68,17.67763,72.68648800036502
69,17.892212,72.38142540875634
70,18.144523,72.0991248476469
71,18.390149,71.14689633444974
72,18.619487,73.6413969373569
73,18.934521,72.38142540875634
74,19.180927,72.38142540875634
75,19.417524,72.07812124897151
76,19.654031,70.57197427552589
77,19.903306,72.38142540875634
78,20.229804,71.14689633444974
79,20.475206,72.38142540875634
80,20.724446,71.14689633444974
81,20.993226,71.14689633444974
82,21.323656,72.38142540875634
83,21.555584,71.44534462078725
84,21.803154,71.44534462078725
85,22.035791,72.07812124897151
86,22.2623,71.14689633444974
87,22.601096,72.38142540875634
88,22.823573,72.38142540875634
89,23.128954,71.4956741710692
90,23.367933,72.38142540875634
91,23.684664,72.07812124897151
92,23.935816,72.68648800036502
93,24.166452,71.14689633444974
94,24.400487,72.38142540875634
95,24.626793,71.14689633444974
96,24.948723,71.44534462078725
97,25.185292,72.38142540875634
98,25.429574,71.14689633444974
99,25.679006,71.14689633444974
100,25.899234,71.4956741710692
101,26.200524,72.38142540875634
102,26.445724,71.14689633444974
103,26.695386,72.38142540875634
104,26.920024,71.44534462078725
105,27.159167,72.38142540875634
106,27.479525,72.68648800036502
107,27.741301,70.57197427552589
108,27.968015,69.93719201342721
109,28.199493,70.22919457412944
110,28.448807,72.68648800036502
111,28.792028,72.38142540875634
112,29.099733,70.85015948745631
113,29.325021,71.44534462078725
114,29.562585,71.14689633444974
115,29.785861,71.14689633444974
116,30.084016,71.44534462078725
117,30.326722,72.07812124897151
118,30.567402,72.07812124897151
119,30.796705,72.07812124897151
120,31.206831,72.38142540875634
121,31.453936,71.14689633444974
122,31.704559,71.14689633444974
123,31.947561,72.68648800036502
124,32.187229,71.14689633444974
125,32.476645,70.22919457412944
126,32.733939,71.74551716199235
127,32.966695,71.14689633444974
128,33.189182,71.44534462078725
129,33.418736,71.4956741710692
130,33.741953,71.14689633444974
131,33.98442,71.14689633444974
132,34.210566,71.14689633444974
133,34.46484,71.44534462078725
134,34.697727,72.68648800036502
135,35.007308,71.44534462078725
136,35.252448,72.68648800036502
137,35.483225,71.14689633444974
138,35.713265,71.14689633444974
139,35.946812,71.44534462078725
140,36.281337,71.14689633444974
141,36.517048,71.14689633444974
142,36.74841,69.95299592849082
143,37.01086,70.86801086842205
144,37.237549,70.57197427552589
145,37.553796,71.14689633444974
146,37.823619,70.81824706465765
147,38.05594,71.14689633444974
148,38.311452,71.14689633444974
149,38.549758,70.81824706465765
150,38.850254,71.74551716199235
151,39.079476,71.14689633444974
152,39.309807,70.22919457412944
153,39.561013,70.22919457412944
154,39.796113,71.14689633444974
155,40.099342,72.07812124897151
156,40.358722,71.74551716199235
157,40.599018,70.24598074652627
158,40.835832,70.57197427552589
159,41.067677,71.14689633444974
160,41.377176,71.14689633444974
161,41.772437,69.66168825661815
162,42.02279,70.22919457412944
163,42.254176,70.22919457412944
164,42.582169,70.22919457412944
165,42.81691,70.81824706465765
166,43.044185,70.22919457412944
167,43.293296,72.07812124897151
168,43.522044,70.86801086842205
169,43.835687,71.14689633444974
170,44.087696,71.1657577828702
171,44.318692,71.14689633444974
172,44.568892,71.44534462078725
173,44.785422,71.44534462078725
174,45.102147,71.14689633444974
175,45.341019,70.24598074652627
176,45.570574,71.14689633444974
177,45.805583,71.74551716199235
178,46.055223,71.44534462078725
179,46.364593,71.74551716199235
180,46.592108,71.14689633444974
181,46.818796,71.14689633444974
182,47.068246,71.44534462078725
183,47.315041,70.81824706465765
184,47.635179,70.24598074652627
185,47.871535,71.74551716199235
186,48.118395,70.52287541478778
187,48.350783,70.52287541478778
188,48.600098,71.14689633444974
189,48.916174,70.57197427552589
190,49.140888,72.38142540875634
191,49.433398,69.95299592849082
192,49.663022,71.44534462078725
193,49.90097,70.22919457412944
194,50.228261,71.44534462078725
195,50.46296,71.14689633444974
196,50.708111,72.38142540875634
197,50.937343,72.07812124897151
198,51.174613,72.07812124897151
199,51.486836,70.22919457412944
200,51.736957,72.07812124897151
201,52.042513,70.22919457412944
202,52.301078,70.52287541478778
203,52.621114,70.22919457412944
204,52.872988,70.22919457412944
205,53.110481,72.99332225170508
206,53.3476,71.44534462078725
207,53.570593,69.66168825661815
208,53.87203,70.57197427552589
209,54.130544,72.0991248476469
210,54.362438,71.74551716199235
211,54.591913,71.79652739819207
212,54.824438,72.07812124897151
213,55.150404,70.22919457412944
214,55.377888,69.66168825661815
215,55.63929,71.74551716199235
216,55.885707,71.44534462078725
217,56.119496,71.74551716199235
218,56.429653,71.74551716199235
219,56.680513,70.22919457412944
220,56.902233,69.95299592849082
221,57.141818,71.14689633444974
222,57.385043,71.14689633444974
223,57.692667,71.74551716199235
224,57.941843,71.1657577828702
225,58.1683,70.24598074652627
226,58.409066,71.14689633444974
227,58.647652,71.1657577828702
228,58.957013,70.52287541478778
229,59.189089,70.52287541478778
230,59.438404,69.66168825661815
231,59.685379,70.86801086842205
232,60.046539,70.86801086842205
233,60.342187,70.57197427552589
234,60.570647,71.14689633444974
235,60.8231,71.44534462078725
236,61.201587,70.81824706465765
237,61.440569,71.44534462078725
238,61.667842,70.86801086842205
239,61.926377,71.14689633444974
240,62.159091,70.86801086842205
241,62.562323,71.74551716199235
242,62.868784,70.85015948745631
243,63.102141,70.81824706465765
244,63.333899,71.44534462078725
245,63.654549,71.44534462078725
246,63.890541,70.86801086842205
247,64.115906,70.52287541478778
248,64.347679,71.44534462078725
249,64.579186,71.74551716199235
250,64.898666,71.44534462078725
251,65.155856,71.1657577828702
252,65.433201,70.52287541478778
253,65.66373,71.14689633444974
254,65.883631,70.52287541478778
255,66.194737,71.1657577828702
256,66.417728,71.14689633444974
257,66.645772,71.74551716199235
258,66.905336,69.66168825661815
259,67.162348,70.81824706465765
260,67.490518,71.44534462078725
261,67.729726,71.74551716199235
262,67.955183,71.44534462078725
263,68.189174,71.44534462078725
264,68.414251,72.68648800036502
265,68.737973,70.22919457412944
266,68.978799,70.22919457412944
267,69.214604,70.24598074652627
268,69.439624,70.86801086842205
269,69.67271,71.14689633444974
270,70.00347,70.52287541478778
271,70.246052,69.66168825661815
272,70.483042,72.0474268894357
273,70.713192,69.6137868719965
274,70.965574,71.1657577828702
275,71.267213,71.44534462078725
276,71.506114,69.66168825661815
277,71.740922,71.14689633444974
278,71.977837,70.22919457412944
279,72.261101,70.81824706465765
280,72.576353,71.14689633444974
281,72.888809,69.66168825661815
282,73.183364,70.27763529221762
283,73.41144,71.14689633444974
284,73.729828,70.22919457412944
285,73.973798,71.44534462078725
286,74.222164,70.86801086842205
287,74.451895,70.52287541478778
288,74.686427,70.22919457412944
289,75.007115,70.52287541478778
290,75.244828,70.52287541478778
291,75.467514,71.44534462078725
292,75.713575,70.22919457412944
293,75.939797,69.66168825661815
294,76.259442,71.44534462078725
295,76.501582,71.44534462078725
296,76.719381,70.52287541478778
297,77.022902,71.74551716199235
298,77.254748,69.95299592849082
299,77.561566,71.14689633444974
300,77.796575,70.52287541478778
301,78.02359,70.57197427552589
302,78.263865,70.52287541478778
303,78.504503,70.22919457412944
304,78.821644,71.74551716199235
305,79.054765,71.44534462078725
306,79.279598,71.44534462078725
307,79.507852,71.44534462078725
308,79.736604,71.44534462078725
309,80.046153,71.1657577828702
310,80.284785,70.22919457412944
311,80.520434,70.22919457412944
312,80.748807,69.37204530289893
313,80.986929,70.22919457412944
314,81.322904,70.52287541478778
315,81.549934,70.86801086842205
316,81.781902,70.22919457412944
317,82.016612,70.22919457412944
318,82.263943,71.74551716199235
319,82.554259,70.52287541478778
320,82.806123,69.66168825661815
321,83.042493,70.52287541478778
322,83.391498,71.44534462078725
323,83.746943,69.32478685101522
324,84.005369,70.22919457412944
325,84.254167,71.44534462078725
326,84.49742,70.22919457412944
327,84.849151,69.6137868719965
328,85.089633,70.52287541478778
329,85.334024,70.52287541478778
330,85.583561,71.1657577828702
331,85.838393,70.81824706465765
332,86.172786,71.46522784574555
333,86.439678,69.95299592849082
334,86.676803,70.22919457412944
335,86.921484,69.6137868719965
336,87.157615,70.52287541478778
337,87.469343,70.86801086842205
338,87.712986,70.24598074652627
339,87.968181,70.81824706465765
340,88.214491,70.81824706465765
341,88.446525,70.22919457412944
342,88.766041,70.52287541478778
343,89.007794,71.11532216589113
344,89.242624,70.52287541478778
345,89.477285,70.81824706465765
346,89.707725,70.81824706465765
347,90.029599,70.22919457412944
348,90.290975,70.24598074652627
349,90.537339,70.81824706465765
350,90.804667,70.52287541478778
351,91.118099,70.24598074652627
352,91.351418,70.81824706465765
353,91.596331,70.81824706465765
354,91.847026,69.05125352563948
355,92.097743,69.95299592849082
356,92.430044,69.6137868719965
357,92.706061,70.24598074652627
358,92.947992,70.81824706465765
359,93.185045,69.32478685101522
360,93.514689,70.52287541478778
361,93.853278,70.81824706465765
362,94.126036,70.81824706465765
363,94.351188,70.81824706465765
364,94.681234,69.6137868719965
365,94.924564,69.90444497042563
366,95.156777,69.32478685101522
367,95.396208,70.81824706465765
368,95.630716,70.22919457412944
369,95.935067,70.81824706465765
370,96.173999,70.81824706465765
371,96.423451,69.6137868719965
372,96.670906,70.52287541478778
373,96.914378,71.11532216589113
374,97.233306,69.32478685101522
375,97.464601,68.7645888487934
376,97.696429,68.7178525488184
377,97.936712,69.05125352563948
378,98.196302,71.41411347473714
379,98.500214,69.05125352563948
380,98.764061,71.74551716199235
381,98.990233,70.81824706465765
382,99.238637,71.41411347473714
383,99.471009,70.81824706465765
384,99.808328,70.24598074652627
385,100.034075,69.33956288138269
386,100.272755,69.90444497042563
387,100.506439,69.90444497042563
388,100.748657,69.62952917619725
389,101.050119,71.11532216589113
390,101.289161,70.5406552507182
391,101.51145,68.43344848194124
392,101.753773,69.90444497042563
393,101.9863,69.66168825661815
394,102.296724,71.41411347473714
395,102.518139,71.11532216589113
396,102.767081,69.90444497042563
397,103.013009,70.81824706465765
398,103.237371,69.90444497042563
399,103.556208,69.32478685101522
400,103.856229,69.90444497042563
401,104.133385,69.90444497042563
402,104.452035,70.81824706465765
403,104.787811,70.49078495103346
404,105.045232,69.90444497042563
405,105.286489,70.81824706465765
406,105.505975,69.6137868719965
407,105.743316,69.95299592849082
408,106.051536,69.90444497042563
409,106.284636,70.52287541478778
410,106.533538,70.24598074652627
411,106.759131,70.81824706465765
412,107.014077,70.83703209423514
413,107.338356,70.81824706465765
414,107.576507,70.24598074652627
415,107.806861,70.24598074652627
416,108.0342,70.5406552507182
417,108.278503,70.24598074652627
418,108.609937,69.00388265832383
419,108.854318,70.19677350635565
420,109.096816,70.81824706465765
421,109.344066,70.81824706465765
422,109.583475,70.81824706465765
423,109.874929,69.90444497042563
424,110.162467,70.24598074652627
425,110.402059,70.19677350635565
426,110.644148,69.33956288138269
427,110.966874,69.90444497042563
428,111.238967,69.90444497042563
429,111.471954,70.24598074652627
430,111.710336,69.90444497042563
431,111.964329,70.81824706465765
432,112.278783,71.11532216589113
433,112.530117,69.90444497042563
434,112.753846,70.24598074652627
435,113.058569,70.19677350635565
436,113.35907,70.24598074652627
437,113.59665,70.81824706465765
438,113.827226,70.81824706465765
439,114.069059,69.00388265832383
440,114.298035,69.90444497042563
441,114.680951,70.81824706465765
442,114.92116,69.62952917619725
443,115.155542,71.11532216589113
444,115.381417,71.11532216589113
445,115.612467,70.83703209423514
446,115.945168,71.11532216589113
447,116.197899,70.81824706465765
448,116.431475,69.62952917619725
449,116.670342,69.90444497042563
450,116.918329,70.19677350635565
451,117.254431,70.49078495103346
452,117.492405,69.62952917619725
453,117.733118,69.90444497042563
454,117.964225,69.90444497042563
455,118.202698,70.19677350635565
456,118.51884,69.90444497042563
457,118.745203,69.62952917619725
458,118.996519,70.81824706465765
459,119.221887,70.19677350635565
460,119.455591,69.90444497042563
461,119.783394,69.90444497042563
462,120.023009,69.90444497042563
463,120.268973,70.83703209423514
464,120.490112,68.44627781066933
465,120.725148,69.90444497042563
466,121.029905,70.83703209423514
467,121.281592,70.24598074652627
468,121.515773,70.83703209423514
469,121.750143,70.81824706465765
470,121.981175,69.90444497042563
471,122.283235,70.49078495103346
472,122.531944,69.90444497042563
473,122.772763,70.49078495103346
474,123.027522,70.83703209423514
475,123.259926,70.49078495103346
476,123.592572,70.49078495103346
477,123.863849,69.90444497042563
478,124.10868,70.49078495103346
479,124.340869,70.49078495103346
480,124.588866,69.29155089533805
481,124.917105,69.90444497042563
482,125.242613,69.33956288138269
483,125.495951,69.9211647805527
484,125.718333,69.58086945311348
485,126.010583,69.018602105011
486,126.254916,69.00388265832383
487,126.53316,69.58086945311348
488,126.77128,69.90444497042563
489,126.99223,69.9211647805527
490,127.304845,70.81824706465765
491,127.559437,69.33956288138269
492,127.790912,69.90444497042563
493,128.017998,69.90444497042563
494,128.250353,69.62952917619725
495,128.55633,68.44627781066933
496,128.792256,69.90444497042563
497,129.039157,69.9211647805527
498,129.269465,70.19677350635565
499,129.500317,69.00388265832383
500,129.800597,70.49078495103346
501,130.05575,69.29155089533805
502,130.302891,70.49078495103346
503,130.545465,69.018602105011
504,130.792146,68.7316214653949
505,131.093857,69.58086945311348
506,131.361581,71.41411347473714
507,131.61183,69.90444497042563
508,131.859572,69.05125352563948
509,132.182977,68.44627781066933
510,132.425535,69.9211647805527
511,132.680188,69.29155089533805
512,132.905732,68.11633632423575
513,133.145974,69.018602105011
514,133.461571,69.018602105011
515,133.721011,70.49078495103346
516,133.946686,70.81824706465765
517,134.182078,71.41411347473714
518,134.429597,69.58086945311348
519,134.763142,69.9211647805527
520,135.000378,70.83703209423514
521,135.245374,69.9211647805527
522,135.517815,69.90444497042563
523,135.886019,69.9211647805527
524,136.125168,69.9211647805527
525,136.359816,70.49078495103346
526,136.589858,70.49078495103346
527,136.827302,70.49078495103346
528,137.160404,70.49078495103346
529,137.387927,68.11633632423575
530,137.642354,71.41411347473714
531,137.902114,69.29155089533805
532,138.151952,69.00388265832383
533,138.455843,71.13512404462541
534,138.688149,70.78649188808008
535,138.917601,69.29155089533805
536,139.15168,69.00388265832383
537,139.379634,68.7178525488184
538,139.707433,70.49078495103346
539,139.961538,68.11633632423575
540,140.193446,69.00388265832383
541,140.442015,68.11633632423575
542,140.671243,68.11633632423575
543,140.985984,71.41411347473714
544,141.240864,69.9211647805527
545,141.488601,68.11633632423575
546,141.724202,69.00388265832383
547,141.969905,69.58086945311348
548,142.269516,70.49078495103346
549,142.510035,70.78649188808008
550,142.757901,71.11532216589113
551,142.991222,70.49078495103346
552,143.239017,68.7178525488184
553,143.546363,69.58086945311348
554,143.786346,70.19677350635565
555,144.039918,70.19677350635565
556,144.272021,70.19677350635565
557,144.5218,70.49078495103346
558,144.840192,69.29155089533805
559,145.090472,69.62952917619725
560,145.337215,71.41411347473714
561,145.56787,70.49078495103346
562,145.94754,69.00388265832383
563,146.249862,68.68413965329272
564,146.488963,69.00388265832383
565,146.750494,70.78649188808008
566,147.074826,70.49078495103346
567,147.3228,69.58086945311348
568,147.565104,71.71463386275617
569,147.80737,70.78649188808008
570,148.066121,68.11633632423575
571,148.395766,70.49078495103346
572,148.640796,69.58086945311348
573,148.881848,68.68413965329272
574,149.129545,69.00388265832383
575,149.383403,70.19677350635565
576,149.714579,69.00388265832383
577,149.968867,70.19677350635565
578,150.221278,70.19677350635565
579,150.464564,70.19677350635565
580,150.799163,70.19677350635565
581,151.052713,69.29155089533805
582,151.282041,68.7316214653949
583,151.5108,69.29155089533805
584,151.76344,68.39942877537734
585,152.095248,69.58086945311348
586,152.344842,69.29155089533805
587,152.575757,68.39942877537734
588,152.828421,69.00388265832383
589,153.081392,69.58086945311348
590,153.382153,70.19677350635565
591,153.625389,70.19677350635565
592,153.851727,69.58086945311348
593,154.086258,70.49078495103346
594,154.332734,69.90444497042563
595,154.626527,69.00388265832383
596,154.880621,69.018602105011
597,155.112645,69.90444497042563
598,155.35592,69.62952917619725
599,155.587771,68.44627781066933
600,155.907687,69.29155089533805
601,156.176688,69.29155089533805
602,156.526373,69.00388265832383
603,156.729073,69.29155089533805
604,157.046485,69.018602105011
605,157.294528,69.29155089533805
606,157.522714,69.29155089533805
607,157.789024,69.58086945311348
608,158.026804,69.29155089533805
609,158.407171,69.58086945311348
610,158.658135,70.49078495103346
611,158.91088,69.00388265832383
612,159.167872,67.56590353878033
613,159.403536,69.90444497042563
614,159.707971,69.9211647805527
615,159.949544,69.58086945311348
616,160.205542,69.58086945311348
617,160.450927,68.7316214653949
618,160.682859,69.58086945311348
619,161.001666,70.49078495103346
620,161.261744,70.78649188808008
621,161.496532,70.49078495103346
622,161.744253,69.29155089533805
623,161.975266,69.29155089533805
