,time (s),surface tension (mN/m)
0,0.106245,70.00399288787003
1,0.358844,70.92025860924102
2,0.583595,69.42172420275352
3,0.797433,71.21869049226552
4,1.109162,70.6235440121572
5,1.299972,71.51885255967237
6,1.498954,70.64780148765827
7,1.689965,71.51885255967237
8,1.881217,69.10103308480775
9,2.071613,71.21869049226552
10,2.340704,70.6235440121572
11,2.569992,70.6235440121572
12,2.81757,70.92025860924102
13,3.049774,70.92025860924102
14,3.299497,69.71202282035159
15,3.607169,70.6235440121572
16,3.83852,70.92025860924102
17,4.049473,70.6235440121572
18,4.264367,70.92025860924102
19,4.516318,70.35176183453109
20,4.775863,70.6235440121572
21,5.021573,70.6235440121572
22,5.218367,70.00399288787003
23,5.412405,71.21869049226552
24,5.615892,70.92025860924102
25,5.862321,70.6235440121572
26,6.075972,70.6235440121572
27,6.292742,70.6235440121572
28,6.493182,70.6235440121572
29,6.721328,70.92025860924102
30,7.034729,70.6235440121572
31,7.272085,70.92025860924102
32,7.505777,70.32853391830915
33,7.748517,71.21869049226552
34,7.959555,70.00399288787003
35,8.229707,70.6235440121572
36,8.476832,70.92025860924102
37,8.666254,71.21869049226552
38,8.896498,70.6235440121572
39,9.117688,70.00399288787003
40,9.350162,70.6235440121572
41,9.550623,70.92025860924102
42,9.74559,70.00399288787003
43,9.936558,71.21869049226552
44,10.144969,69.71202282035159
45,10.439652,69.71202282035159
46,10.668803,70.6235440121572
47,10.919625,70.6235440121572
48,11.183769,70.92025860924102
49,11.435382,69.71202282035159
50,11.713585,69.42172420275352
51,11.928845,70.6235440121572
52,12.157277,70.92025860924102
53,12.407174,69.71202282035159
54,12.632435,70.92025860924102
55,12.901734,70.92025860924102
56,13.138194,70.32853391830915
57,13.330972,70.6235440121572
58,13.547525,70.6235440121572
59,13.744245,70.6235440121572
60,13.996362,70.00399288787003
61,14.197377,70.32853391830915
62,14.391049,69.44284089894614
63,14.62219,69.71202282035159
64,14.809966,70.92025860924102
65,15.118487,70.92025860924102
66,15.347534,70.35176183453109
67,15.577472,70.92025860924102
68,15.80574,70.6235440121572
69,16.011925,70.32853391830915
70,16.24985,70.92025860924102
71,16.49627,69.42172420275352
72,16.723155,69.42172420275352
73,16.917776,68.81372125202523
74,17.142748,70.00399288787003
75,17.4161,69.1532112634136
76,17.609345,70.00399288787003
77,17.795684,70.32853391830915
78,17.983476,69.71202282035159
79,18.172552,70.92025860924102
80,18.372426,69.42172420275352
81,18.633468,70.6235440121572
82,18.867414,70.6235440121572
83,19.129944,68.86523967945928
84,19.368203,70.32853391830915
85,19.609665,70.00399288787003
86,19.893457,70.00399288787003
87,20.113217,70.00399288787003
88,20.3268,70.92025860924102
89,20.593577,69.42172420275352
90,20.800819,69.42172420275352
91,21.069199,69.44284089894614
92,21.310056,70.92025860924102
93,21.596997,70.92025860924102
94,21.788629,70.00399288787003
95,21.986515,70.05742570158091
96,22.230259,70.6235440121572
97,22.432667,70.00399288787003
98,22.632335,68.5280485212477
99,22.805315,69.71202282035159
100,23.03741,68.86523967945928
101,23.317543,69.42172420275352
102,23.555351,68.86523967945928
103,23.785564,68.86523967945928
104,24.020271,68.26211048022711
105,24.250092,69.1532112634136
106,24.503773,69.71202282035159
107,24.734055,70.6235440121572
108,24.935608,69.71202282035159
109,25.153306,70.92025860924102
110,25.376761,69.71202282035159
111,25.637006,70.00399288787003
112,25.833834,70.00399288787003
113,26.023239,70.6235440121572
114,26.212014,70.00399288787003
115,26.41251,69.1532112634136
116,26.601568,70.00399288787003
117,26.895559,70.00399288787003
118,27.128802,70.00399288787003
119,27.380469,69.44284089894614
120,27.625323,70.00399288787003
121,27.868636,69.10103308480775
122,28.119241,69.10103308480775
123,28.3454,70.00399288787003
124,28.549433,69.10103308480775
125,28.749785,68.81372125202523
126,28.983184,70.00399288787003
127,29.254055,69.71202282035159
128,29.514328,69.44284089894614
129,29.719065,70.92025860924102
130,29.907262,70.29764690217807
131,30.095966,68.81372125202523
132,30.340487,69.73414098275127
133,30.533787,70.29764690217807
134,30.780622,68.5280485212477
135,31.029758,70.29764690217807
136,31.292281,69.38999623766415
137,31.59211,68.81372125202523
138,31.845252,70.92025860924102
139,32.052638,69.10103308480775
140,32.262365,70.00399288787003
141,32.46985,69.71202282035159
142,32.708948,70.00399288787003
143,32.949603,70.00399288787003
144,33.169744,69.10103308480775
145,33.408456,69.10103308480775
146,33.602099,70.29764690217807
147,33.830063,69.10103308480775
148,34.037921,70.00399288787003
149,34.227355,70.00399288787003
150,34.41923,67.92841562660423
151,34.640694,69.71202282035159
152,34.934673,69.38999623766415
153,35.188522,69.10103308480775
154,35.417855,70.00399288787003
155,35.646985,70.00399288787003
156,35.874001,69.10103308480775
157,36.148985,68.81372125202523
158,36.401975,68.81372125202523
159,36.608656,69.10103308480775
160,36.837466,69.10103308480775
161,37.051066,70.00399288787003
162,37.333552,69.71202282035159
163,37.544342,69.38999623766415
164,37.73826,69.71202282035159
165,37.926696,70.00399288787003
166,38.118237,69.10103308480775
167,38.305405,69.10103308480775
168,38.533564,69.38999623766415
169,38.797549,69.10103308480775
170,39.047571,69.71202282035159
171,39.301161,69.10103308480775
172,39.588465,70.29764690217807
173,39.843388,69.10103308480775
174,40.051212,70.00399288787003
175,40.252567,70.00399288787003
176,40.453387,69.10103308480775
177,40.69532,69.10103308480775
178,41.032372,68.81372125202523
179,41.232654,69.38999623766415
180,41.433117,68.81372125202523
181,41.636546,69.10103308480775
182,41.862672,69.10103308480775
183,42.083719,69.10103308480775
184,42.298546,68.2111537635932
185,42.54813,70.00399288787003
186,42.788334,70.59299747293066
187,43.061801,69.10103308480775
188,43.311046,69.38999623766415
189,43.530121,69.10103308480775
190,43.751605,69.10103308480775
191,43.974369,69.10103308480775
192,44.261687,69.10103308480775
193,44.483517,70.00399288787003
194,44.699847,69.10103308480775
195,44.917321,68.54711922143218
196,45.127994,69.38999623766415
197,45.364754,69.10103308480775
198,45.568679,69.38999623766415
199,45.759954,69.68062303857994
200,45.959386,68.54711922143218
201,46.165984,69.38999623766415
202,46.358338,69.44284089894614
203,46.693101,69.10103308480775
204,46.932385,69.10103308480775
205,47.163578,69.10103308480775
206,47.409123,69.10103308480775
207,47.641614,69.10103308480775
208,47.895785,69.10103308480775
209,48.134735,69.10103308480775
210,48.331397,69.38999623766415
211,48.561199,69.38999623766415
212,48.77173,69.10103308480775
213,49.028813,69.10103308480775
214,49.224133,69.10103308480775
215,49.42385,69.10103308480775
216,49.613241,69.10103308480775
217,49.806403,68.23014776907273
218,49.996394,69.10103308480775
219,50.261139,69.10103308480775
220,50.515688,68.2111537635932
221,50.767476,69.10103308480775
222,51.014514,69.68062303857994
223,51.401084,69.68062303857994
224,51.63933,69.10103308480775
225,51.850415,69.10103308480775
226,52.065211,69.38999623766415
227,52.273614,69.10103308480775
228,52.559715,69.10103308480775
229,52.768051,68.78150025738614
230,52.974449,69.38999623766415
231,53.172504,68.78150025738614
232,53.374927,68.49551128944034
233,53.62373,69.10103308480775
234,53.811892,70.00399288787003
235,54.027264,67.92841562660423
236,54.295564,69.38999623766415
237,54.543778,67.9464512886202
238,54.838299,69.10103308480775
239,55.088799,68.2111537635932
240,55.294285,69.10103308480775
241,55.508404,69.10103308480775
242,55.716198,69.10103308480775
243,56.006376,69.10103308480775
244,56.226728,69.10103308480775
245,56.454031,68.2111537635932
246,56.680678,67.9464512886202
247,56.880498,69.68062303857994
248,57.112884,69.10103308480775
249,57.309952,69.68062303857994
250,57.505025,67.33413385037
251,57.693513,69.38999623766415
252,57.89028,68.78150025738614
253,58.180902,69.68062303857994
254,58.429532,69.10103308480775
255,58.679567,68.49551128944034
256,58.908579,68.78150025738614
257,59.138111,69.38999623766415
258,59.397901,68.49551128944034
259,59.619782,68.83376604572986
260,59.840497,68.49551128944034
261,60.079598,69.68062303857994
262,60.287216,67.61396925150062
263,60.55187,68.78150025738614
264,60.78882,69.68062303857994
265,60.98501,69.68062303857994
266,61.189273,68.78150025738614
267,61.392577,68.49551128944034
268,61.70938,68.2111537635932
269,61.915023,68.49551128944034
270,62.102552,67.61396925150062
271,62.355849,67.61396925150062
272,62.625367,68.78150025738614
273,62.901217,69.68062303857994
274,63.147658,69.68062303857994
275,63.378443,68.78150025738614
276,63.628189,68.2111537635932
277,63.83866,69.10103308480775
278,64.096955,68.54711922143218
279,64.306574,68.2111537635932
280,64.532637,68.2111537635932
281,64.746066,69.38999623766415
282,64.940466,66.79438345080172
283,65.174608,67.33413385037
284,65.371638,68.2111537635932
285,65.572815,68.83376604572986
286,65.764108,67.61396925150062
287,65.978786,69.68062303857994
288,66.261074,68.78150025738614
289,66.512769,69.1220631822845
290,66.760859,69.68062303857994
291,66.995818,68.78150025738614
292,67.218241,68.78150025738614
293,67.476295,67.9464512886202
294,67.701279,68.78150025738614
295,67.9441,68.83376604572986
296,68.14828,68.2111537635932
297,68.347055,68.49551128944034
298,68.61756,69.38999623766415
299,68.810451,68.83376604572986
300,69.034955,67.9464512886202
301,69.224412,68.78150025738614
302,69.42199,67.33413385037
303,69.672527,67.33413385037
304,69.876124,69.1220631822845
305,70.078243,68.2111537635932
306,70.270924,68.54711922143218
307,70.509275,67.66437317262685
308,70.856936,67.8954045745175
309,71.116759,68.78150025738614
310,71.356872,69.35842127498603
311,71.606326,67.33413385037
312,71.911201,67.8954045745175
313,72.129805,69.68062303857994
314,72.350261,68.23014776907273
315,72.577981,67.61396925150062
316,72.799418,68.49551128944034
317,73.045741,67.8954045745175
318,73.245444,68.2111537635932
319,73.440761,68.49551128944034
320,73.630377,68.78150025738614
321,73.82148,68.23014776907273
322,74.023836,67.61396925150062
323,74.279262,69.38999623766415
324,74.551042,66.79438345080172
325,74.8023,68.49551128944034
326,75.039648,67.61396925150062
327,75.26244,66.46975653748787
328,75.543089,66.79438345080172
329,75.783862,68.2111537635932
330,75.992232,68.78150025738614
331,76.191654,67.66437317262685
332,76.419785,68.78150025738614
333,76.741032,67.9464512886202
334,76.949136,67.35115502896932
335,77.145143,67.33413385037
336,77.332275,67.33413385037
337,77.520604,67.8954045745175
338,77.713803,67.9464512886202
339,77.957455,67.61396925150062
340,78.175943,68.1784517101697
341,78.456255,68.78150025738614
342,78.708224,68.78150025738614
343,78.955112,68.49551128944034
344,79.228163,68.78150025738614
345,79.436241,67.8954045745175
346,79.64638,68.49551128944034
347,79.895799,69.06913282893176
348,80.110577,67.30066063623073
349,80.398096,67.61396925150062
350,80.614895,67.8954045745175
351,80.817433,68.2111537635932
352,81.007636,67.8954045745175
353,81.200834,68.78150025738614
354,81.397338,67.0719756914291
355,81.622305,66.79438345080172
356,81.839946,67.61396925150062
357,82.161607,67.8954045745175
358,82.44694,67.8954045745175
359,82.775674,67.9464512886202
360,83.01086,67.8954045745175
361,83.238765,68.78150025738614
362,83.444762,67.8954045745175
363,83.654918,67.8954045745175
364,83.955657,68.78150025738614
365,84.174278,67.33413385037
366,84.393936,67.8954045745175
367,84.614218,68.78150025738614
368,84.80786,67.61396925150062
369,85.035489,67.8954045745175
370,85.23835,67.35115502896932
371,85.428123,68.23014776907273
372,85.622007,67.8954045745175
373,85.817216,68.2111537635932
374,86.089565,67.0719756914291
375,86.348963,67.8954045745175
376,86.601503,67.8954045745175
377,86.830439,67.8954045745175
378,87.071813,67.8954045745175
379,87.333203,67.61396925150062
380,87.540511,67.8954045745175
381,87.776617,67.8954045745175
382,87.984288,67.8954045745175
383,88.205342,67.35115502896932
384,88.470485,67.8954045745175
385,88.670983,66.74515162367447
386,88.860968,67.61396925150062
387,89.047821,67.35115502896932
388,89.246108,67.61396925150062
389,89.442183,67.8954045745175
390,89.669012,67.0719756914291
391,89.897842,67.8954045745175
392,90.151203,67.8954045745175
393,90.389681,68.78150025738614
394,90.628335,68.78150025738614
395,90.940855,67.8954045745175
396,91.195421,67.61396925150062
397,91.409004,67.61396925150062
398,91.662927,67.8954045745175
399,91.865308,67.8954045745175
400,92.133069,68.1784517101697
401,92.361891,67.35115502896932
402,92.643339,67.8954045745175
403,92.841069,67.61396925150062
404,93.032679,67.0719756914291
405,93.259809,67.33413385037
406,93.466905,67.33413385037
407,93.667786,68.78150025738614
408,93.896256,67.35115502896932
409,94.159635,67.61396925150062
410,94.452471,68.23014776907273
411,94.701243,67.61396925150062
412,94.934519,67.02211578104595
413,95.16084,67.8954045745175
414,95.374821,67.02211578104595
415,95.677866,67.02211578104595
416,95.891104,67.8954045745175
417,96.107064,67.8954045745175
418,96.315638,67.61396925150062
419,96.530998,67.8954045745175
420,96.785093,67.61396925150062
421,96.980267,67.61396925150062
422,97.171926,67.35115502896932
423,97.358333,67.63193325885517
424,97.545392,67.8954045745175
425,97.773585,67.8954045745175
426,98.069227,66.48486651824085
427,98.316504,66.2101225054834
428,98.56567,67.9464512886202
429,98.798537,67.35115502896932
430,99.010607,67.33413385037
431,99.301064,67.8954045745175
432,99.557766,67.8954045745175
433,99.766248,67.61396925150062
434,100.005328,67.8954045745175
435,100.224361,67.61396925150062
436,100.468702,67.61396925150062
437,100.678609,67.35115502896932
438,100.873622,67.8954045745175
439,101.067662,66.74515162367447
440,101.262035,67.8954045745175
441,101.457679,67.61396925150062
442,101.765876,67.33413385037
443,102.03417,67.8954045745175
444,102.281419,67.33413385037
445,102.534928,67.33413385037
446,102.902903,67.8954045745175
447,103.118248,67.8954045745175
448,103.330271,67.8954045745175
449,103.535018,67.30066063623073
450,103.756257,67.8954045745175
451,104.006113,67.8954045745175
452,104.214608,67.02211578104595
453,104.411477,67.8954045745175
454,104.603484,67.02211578104595
455,104.792676,67.35115502896932
456,104.979006,67.61396925150062
457,105.229259,67.8954045745175
458,105.458853,67.8954045745175
459,105.687409,67.8954045745175
460,105.916608,67.02211578104595
461,106.167237,67.02211578104595
462,106.457044,67.33413385037
463,106.710308,67.8954045745175
464,106.919389,67.02211578104595
465,107.114824,67.8954045745175
466,107.316122,67.02211578104595
467,107.572858,67.02211578104595
468,107.780217,67.8954045745175
469,108.00557,67.02211578104595
470,108.195202,67.02211578104595
471,108.382548,67.02211578104595
472,108.572834,67.02211578104595
473,108.805855,66.2101225054834
474,109.002954,66.76117855793835
475,109.213359,68.1784517101697
476,109.430142,67.02211578104595
477,109.67369,67.02211578104595
478,109.974887,67.8954045745175
479,110.21765,66.48486651824085
480,110.449381,67.02211578104595
481,110.660717,66.48486651824085
482,110.867621,66.48486651824085
483,111.148121,67.02211578104595
484,111.365749,67.02211578104595
485,111.586525,67.02211578104595
486,111.832147,67.02211578104595
487,112.023618,67.02211578104595
488,112.261444,67.8954045745175
489,112.454846,66.76117855793835
490,112.643726,67.02211578104595
491,112.834558,66.74515162367447
492,113.068897,67.8954045745175
493,113.363833,67.02211578104595
494,113.665593,67.35115502896932
495,113.896658,67.35115502896932
496,114.142766,67.30066063623073
497,114.461725,67.02211578104595
498,114.682859,67.02211578104595
499,114.942332,67.02211578104595
500,115.155103,67.8954045745175
501,115.381765,66.48486651824085
502,115.652561,67.30066063623073
503,115.86104,67.02211578104595
504,116.049855,66.16141791791242
505,116.237329,67.02211578104595
506,116.430291,66.16141791791242
507,116.628113,67.02211578104595
508,116.871467,67.30066063623073
509,117.109197,67.02211578104595
510,117.351523,66.76117855793835
511,117.591407,67.02211578104595
512,117.84094,67.02211578104595
513,118.125523,67.30066063623073
514,118.341345,66.16141791791242
515,118.540836,67.02211578104595
516,118.790033,66.43554196235019
517,118.993993,67.02211578104595
518,119.263678,67.02211578104595
519,119.488249,67.30066063623073
520,119.683474,67.30066063623073
521,119.883137,66.16141791791242
522,120.073552,67.02211578104595
523,120.308215,67.02211578104595
524,120.498664,66.16141791791242
525,120.702596,66.16141791791242
526,120.920926,67.02211578104595
527,121.162925,67.58079791978832
528,121.459636,67.58079791978832
529,121.69557,67.02211578104595
530,121.954221,66.43554196235019
531,122.165824,67.02211578104595
532,122.377495,66.43554196235019
533,122.666114,67.02211578104595
534,122.873511,66.43554196235019
535,123.093055,67.02211578104595
536,123.364768,66.43554196235019
537,123.613091,66.43554196235019
538,123.873793,66.16141791791242
539,124.072107,67.02211578104595
540,124.277216,67.58079791978832
541,124.479876,66.16141791791242
542,124.673034,66.43554196235019
543,124.862427,65.63106800895606
544,125.131961,67.58079791978832
545,125.379373,66.71122772019852
546,125.631081,67.58079791978832
547,125.881216,66.17647053600894
548,126.13092,66.48486651824085
549,126.378185,67.58079791978832
550,126.590354,66.76117855793835
551,126.844221,66.16141791791242
552,127.048832,66.16141791791242
553,127.278239,66.71122772019852
554,127.543013,67.30066063623073
555,127.745231,66.71122772019852
556,127.946911,67.58079791978832
557,128.138231,66.71122772019852
558,128.329426,67.02211578104595
559,128.518022,67.03907026110325
560,128.763894,66.71122772019852
561,129.005708,67.58079791978832
562,129.2821,66.16141791791242
563,129.52284,67.30066063623073
564,129.809324,66.17647053600894
565,130.056468,66.71122772019852
566,130.267677,66.43554196235019
567,130.478911,66.71122772019852
568,130.704451,67.58079791978832
569,130.952004,66.71122772019852
570,131.195028,66.71122772019852
571,131.420288,66.43554196235019
572,131.64225,66.71122772019852
573,131.835337,66.71122772019852
574,132.072948,66.71122772019852
575,132.269336,66.71122772019852
576,132.458742,67.58079791978832
577,132.648763,66.71122772019852
578,132.866734,66.16141791791242
579,133.172405,66.71122772019852
580,133.419975,67.58079791978832
581,133.734037,66.71122772019852
582,133.981229,66.71122772019852
583,134.239637,67.02211578104595
584,134.460549,66.43554196235019
585,134.717701,66.43554196235019
586,134.924636,65.58288223845653
587,135.144809,66.71122772019852
588,135.415875,66.71122772019852
589,135.641328,66.43554196235019
590,135.837502,66.43554196235019
591,136.033282,66.71122772019852
592,136.227286,66.71122772019852
593,136.485214,66.71122772019852
594,136.660914,66.71122772019852
595,136.887175,66.43554196235019
596,137.159418,65.8541969440079
597,137.407424,66.71122772019852
598,137.685807,66.17647053600894
599,137.920354,66.71122772019852
600,138.226261,66.43554196235019
601,138.440126,66.17647053600894
602,138.672874,65.90299467512436
603,138.9411,66.71122772019852
604,139.171138,66.71122772019852
605,139.400365,66.43554196235019
606,139.596993,66.43554196235019
607,139.790836,65.32630971829907
608,140.033231,66.16141791791242
609,140.229189,66.71122772019852
610,140.417744,65.8541969440079
611,140.636821,66.43554196235019
612,140.917596,66.43554196235019
613,141.207057,66.43554196235019
614,141.458851,65.8541969440079
615,141.698856,65.8541969440079
616,141.915766,66.12705461505446
617,142.124069,65.8541969440079
618,142.393932,65.8541969440079
619,142.609315,65.32630971829907
620,142.820391,66.71122772019852
621,143.044661,66.43554196235019
622,143.266116,66.71122772019852
623,143.510571,66.12705461505446
624,143.718088,66.71122772019852
625,143.968043,66.71122772019852
626,144.158595,65.8541969440079
627,144.346037,65.8541969440079
628,144.63058,66.17647053600894
629,144.877477,66.71122772019852
