,time (s),surface tension (mN/m)
0,0.0,31.25064736247822
1,0.232454,30.961910366975424
2,0.459283,31.4227674978211
3,0.687939,31.505234069294637
4,0.940655,32.05917189229748
5,1.230877,32.23645179647993
6,1.475964,31.678756399540084
7,1.718544,32.23645179647993
8,1.954516,31.33300748960644
9,2.190649,32.23645179647993
10,2.511055,30.711714136732038
11,2.776876,31.678756399540084
12,3.006219,32.05917189229748
13,3.218849,32.05917189229748
14,3.47005,30.880196973734552
15,3.793224,31.596185571583227
16,4.043418,31.4227674978211
17,4.280466,30.793317376174656
18,4.518179,31.4227674978211
19,4.766725,31.30289596204821
20,5.091815,31.4227674978211
21,5.352162,30.961910366975424
22,5.601822,32.23645179647993
23,5.826681,30.961910366975424
24,6.063819,31.505234069294637
25,6.364122,30.961910366975424
26,6.605157,30.711714136732038
27,6.829564,31.33300748960644
28,7.079058,30.54448350795105
29,7.306428,31.25064736247822
30,7.616972,31.800108938587325
31,7.873017,31.25064736247822
32,8.125552,31.33300748960644
33,8.356344,31.975956283757796
34,8.564503,31.800108938587325
35,8.848063,31.07981250702393
36,9.084142,30.711714136732038
37,9.317947,31.25064736247822
38,9.547584,30.711714136732038
39,9.797288,30.961910366975424
40,10.079027,31.13176576724455
41,10.387019,32.05917189229748
42,10.628577,31.4227674978211
43,10.865475,31.13176576724455
44,11.151899,31.25064736247822
45,11.40111,31.25064736247822
46,11.634577,31.505234069294637
47,11.863932,31.25064736247822
48,12.11204,31.25064736247822
49,12.401386,30.711714136732038
50,12.644884,31.25064736247822
51,12.887041,30.961910366975424
52,13.122663,30.711714136732038
53,13.364018,30.961910366975424
54,13.647925,31.25064736247822
55,13.879199,31.4227674978211
56,14.096059,30.961910366975424
57,14.348465,31.505234069294637
58,14.576098,30.711714136732038
59,14.866997,30.961910366975424
60,15.100279,30.961910366975424
61,15.35049,30.183073910661896
62,15.582841,31.33300748960644
63,15.816347,31.4227674978211
64,16.102649,31.25064736247822
65,16.329042,30.711714136732038
66,16.558914,31.25064736247822
67,16.790692,30.880196973734552
68,17.02156,30.961910366975424
69,17.313252,32.05917189229748
70,17.538699,30.961910366975424
71,17.751805,31.25064736247822
72,17.978136,30.711714136732038
73,18.209041,31.25064736247822
74,18.504617,30.711714136732038
75,18.731899,31.678756399540084
76,18.960981,30.793317376174656
77,19.19561,31.25064736247822
78,19.421021,31.505234069294637
79,19.713924,31.13176576724455
80,19.935551,30.961910366975424
81,20.176431,30.961910366975424
82,20.424263,30.880196973734552
83,20.697358,30.961910366975424
84,21.026959,30.880196973734552
85,21.27983,30.880196973734552
86,21.51462,30.711714136732038
87,21.737662,31.25064736247822
88,21.973074,31.04994430394384
89,22.263654,31.4227674978211
90,22.498234,30.711714136732038
91,22.729376,31.4227674978211
92,22.952747,31.505234069294637
93,23.21052,30.711714136732038
94,23.509137,30.961910366975424
95,23.748926,31.13176576724455
96,23.997708,30.711714136732038
97,24.232215,30.961910366975424
98,24.47528,30.711714136732038
99,24.755887,30.880196973734552
100,25.0182,31.4227674978211
101,25.268896,31.13176576724455
102,25.499517,31.30289596204821
103,25.726487,30.711714136732038
104,26.025876,30.961910366975424
105,26.27927,30.961910366975424
106,26.525198,31.505234069294637
107,26.756269,31.30289596204821
108,27.00455,30.880196973734552
109,27.33,30.711714136732038
110,27.565896,30.711714136732038
111,27.796243,30.961910366975424
112,28.048383,31.04994430394384
113,28.299505,31.04994430394384
114,28.591226,31.13176576724455
115,28.821775,31.4227674978211
116,29.046259,30.961910366975424
117,29.268949,30.961910366975424
118,29.506303,31.13176576724455
119,29.796525,30.880196973734552
120,30.035092,30.961910366975424
121,30.252178,31.13176576724455
122,30.492731,31.04994430394384
123,30.728351,30.961910366975424
124,31.103661,31.13176576724455
125,31.369169,31.13176576724455
126,31.608089,30.961910366975424
127,31.849257,30.961910366975424
128,32.095351,30.880196973734552
129,32.396381,31.04994430394384
130,32.646475,30.880196973734552
131,32.891346,30.961910366975424
132,33.139127,30.595240202268844
133,33.37367,31.04994430394384
134,33.674747,30.34800695111379
135,33.907342,31.13176576724455
136,34.145319,31.04994430394384
137,34.372617,31.13176576724455
138,34.60045,31.13176576724455
139,34.891946,31.13176576724455
140,35.138061,30.595240202268844
141,35.367822,31.13176576724455
142,35.588034,30.961910366975424
143,35.819223,30.34800695111379
144,36.095868,30.42896351734371
145,36.341924,30.34800695111379
146,36.575352,31.30289596204821
147,36.795307,30.880196973734552
148,37.056759,31.04994430394384
149,37.346281,31.04994430394384
150,37.589154,30.595240202268844
151,37.819482,31.04994430394384
152,38.044455,30.961910366975424
153,38.276458,30.34800695111379
154,38.57865,30.595240202268844
155,38.828804,31.30289596204821
156,39.063144,30.961910366975424
157,39.302865,30.595240202268844
158,39.537788,30.595240202268844
159,39.840001,31.04994430394384
160,40.075656,30.711714136732038
161,40.328902,31.04994430394384
162,40.57926,31.04994430394384
163,40.81547,31.13176576724455
164,41.099443,31.30289596204821
165,41.349485,31.30289596204821
166,41.68376,30.76275891271821
167,41.918496,31.13176576724455
168,42.23378,31.30289596204821
169,42.486289,30.595240202268844
170,42.722685,31.30289596204821
171,42.974297,31.04994430394384
172,43.22593,29.98863451866097
173,43.61351,30.76275891271821
174,43.856344,30.514171980561144
175,44.09758,30.514171980561144
176,44.333473,30.76275891271821
177,44.612056,30.514171980561144
178,44.922503,31.13176576724455
179,45.151903,31.30289596204821
180,45.402252,30.961910366975424
181,45.652912,30.711714136732038
182,45.880471,30.961910366975424
183,46.175879,31.13176576724455
184,46.425605,30.595240202268844
185,46.673232,30.595240202268844
186,46.926395,30.595240202268844
187,47.161327,30.76275891271821
188,47.487337,30.76275891271821
189,47.726444,30.595240202268844
190,47.974574,30.595240202268844
191,48.221345,30.42896351734371
192,48.472475,31.13176576724455
193,48.781705,30.595240202268844
194,49.033351,31.30289596204821
195,49.270155,30.595240202268844
196,49.51509,30.76275891271821
197,49.751819,30.595240202268844
198,50.059551,31.13176576724455
199,50.307505,30.961910366975424
200,50.53022,31.04994430394384
201,50.771256,30.595240202268844
202,51.022901,30.76275891271821
203,51.304427,30.514171980561144
204,51.567988,31.13176576724455
205,51.940317,31.04994430394384
206,52.222953,30.961910366975424
207,52.533864,30.595240202268844
208,52.792212,30.76275891271821
209,53.020846,30.595240202268844
210,53.249741,31.30289596204821
211,53.488718,30.34800695111379
212,53.797696,30.961910366975424
213,54.029431,31.13176576724455
214,54.253619,30.961910366975424
215,54.484023,30.595240202268844
216,54.71688,31.13176576724455
217,55.027203,30.76275891271821
218,55.283185,31.30289596204821
219,55.527983,30.76275891271821
220,55.779004,30.595240202268844
221,56.011821,30.76275891271821
222,56.304234,30.76275891271821
223,56.538305,30.76275891271821
224,56.787979,30.595240202268844
225,57.030115,30.595240202268844
226,57.268969,31.30289596204821
227,57.582274,30.595240202268844
228,57.826405,30.595240202268844
229,58.058716,30.232940104253213
230,58.305915,30.595240202268844
231,58.537863,30.76275891271821
232,58.844258,31.13176576724455
233,59.110956,30.232940104253213
234,59.395004,30.595240202268844
235,59.643439,30.595240202268844
236,59.947554,30.76275891271821
237,60.216924,30.595240202268844
238,60.460529,30.76275891271821
239,60.691972,30.76275891271821
240,60.936611,30.76275891271821
241,61.223151,30.398156088082924
242,61.484665,30.76275891271821
243,61.732451,30.595240202268844
244,61.965348,30.76275891271821
245,62.312396,30.232940104253213
246,62.573043,30.76275891271821
247,62.813592,30.76275891271821
248,63.044519,30.93153181073436
249,63.285023,30.068946100692557
250,63.590813,30.514171980561144
251,63.862176,30.595240202268844
252,64.11549,30.76275891271821
253,64.42434,30.76275891271821
254,64.744207,30.232940104253213
255,65.019831,30.93153181073436
256,65.285501,30.514171980561144
257,65.516094,30.232940104253213
258,65.739427,30.514171980561144
259,66.046632,30.398156088082924
260,66.282372,30.232940104253213
261,66.51233,30.398156088082924
262,66.746543,30.76275891271821
263,66.971911,30.681581062767794
264,67.268016,30.232940104253213
265,67.536947,30.76275891271821
266,67.785999,30.76275891271821
267,68.020329,30.76275891271821
268,68.24578,30.76275891271821
269,68.531941,30.595240202268844
270,68.778891,30.76275891271821
271,69.023874,29.98863451866097
272,69.278441,30.232940104253213
273,69.520733,30.595240202268844
274,69.813756,30.398156088082924
275,70.063663,30.564605995399965
276,70.299176,30.93153181073436
277,70.529493,30.564605995399965
278,70.75959,30.93153181073436
279,71.044403,30.398156088082924
280,71.282407,30.76275891271821
281,71.508949,30.564605995399965
282,71.735635,30.232940104253213
283,71.963018,30.398156088082924
284,72.25911,30.232940104253213
285,72.496751,30.93153181073436
286,72.808182,30.595240202268844
287,73.104535,30.76275891271821
288,73.412033,30.514171980561144
289,73.674304,30.76275891271821
290,73.927334,30.595240202268844
291,74.172904,30.93153181073436
292,74.495477,30.93153181073436
293,74.751663,30.76275891271821
294,74.998533,30.76275891271821
295,75.231071,30.398156088082924
296,75.46888,30.93153181073436
297,75.779444,30.564605995399965
298,76.029757,30.93153181073436
299,76.264388,30.595240202268844
300,76.502122,30.93153181073436
301,76.731039,30.398156088082924
302,77.012115,30.564605995399965
303,77.248793,30.398156088082924
304,77.498044,30.398156088082924
305,77.719706,30.93153181073436
306,77.963262,30.93153181073436
307,78.266442,30.232940104253213
308,78.490821,30.93153181073436
309,78.733951,30.398156088082924
310,78.96693,30.93153181073436
311,79.198898,30.398156088082924
312,79.556004,29.87495397047828
313,79.792851,30.564605995399965
314,80.014529,30.398156088082924
315,80.259372,30.564605995399965
316,80.505665,30.564605995399965
317,80.820734,30.398156088082924
318,81.090431,30.398156088082924
319,81.322413,30.398156088082924
320,81.54948,30.564605995399965
321,81.898013,30.564605995399965
322,82.144246,30.93153181073436
323,82.384295,30.398156088082924
324,82.616534,30.398156088082924
325,82.843571,30.152515429304298
326,83.175868,30.93153181073436
327,83.471875,30.398156088082924
328,83.717971,30.564605995399965
329,83.973485,30.398156088082924
330,84.283441,30.398156088082924
331,84.518458,30.398156088082924
332,84.752732,30.202061372102076
333,84.990076,30.398156088082924
334,85.224326,30.152515429304298
335,85.502787,30.850246403685958
336,85.748668,30.93153181073436
337,85.974888,30.398156088082924
338,86.206801,30.398156088082924
339,86.448263,30.398156088082924
340,86.754167,30.564605995399965
341,86.997862,30.398156088082924
342,87.231418,30.93153181073436
343,87.460298,30.398156088082924
344,87.715552,30.398156088082924
345,88.014764,30.202061372102076
346,88.253625,30.398156088082924
347,88.487343,30.564605995399965
348,88.731283,30.398156088082924
349,88.981284,30.398156088082924
350,89.27645,30.398156088082924
351,89.501711,30.398156088082924
352,89.740848,30.398156088082924
353,89.985919,30.398156088082924
354,90.237273,30.732301909895835
355,90.537866,30.564605995399965
356,90.783235,30.202061372102076
357,91.013234,30.398156088082924
358,91.245239,30.202061372102076
359,91.492898,30.93153181073436
360,91.797641,30.03790067316702
361,92.031398,29.87495397047828
362,92.264244,30.564605995399965
363,92.508043,30.398156088082924
364,92.741846,30.317620292376926
365,93.027791,30.152515429304298
366,93.269712,30.398156088082924
367,93.507378,30.03790067316702
368,93.852669,30.564605995399965
369,94.139709,30.202061372102076
370,94.397878,30.732301909895835
371,94.627877,29.87495397047828
372,94.857874,30.732301909895835
373,95.093453,30.202061372102076
374,95.397857,30.202061372102076
375,95.662154,30.202061372102076
376,95.896724,30.398156088082924
377,96.146213,30.732301909895835
378,96.381876,30.202061372102076
379,96.691035,30.202061372102076
380,96.936957,30.202061372102076
381,97.173678,30.564605995399965
382,97.422088,30.202061372102076
383,97.670991,30.202061372102076
384,97.973508,30.732301909895835
385,98.213271,30.202061372102076
386,98.451183,30.03790067316702
387,98.692431,30.732301909895835
388,98.944037,30.202061372102076
389,99.267819,29.87495397047828
390,99.532127,30.202061372102076
391,99.781401,30.564605995399965
392,100.020675,30.03790067316702
393,100.255478,30.202061372102076
394,100.546852,30.564605995399965
395,100.784146,30.202061372102076
396,101.008366,30.317620292376926
397,101.239499,30.564605995399965
398,101.523994,30.202061372102076
399,101.825562,30.202061372102076
400,102.055626,30.901256057685302
401,102.286146,30.202061372102076
402,102.537175,30.202061372102076
403,102.78515,30.732301909895835
404,103.07506,30.202061372102076
405,103.314386,30.732301909895835
406,103.547074,30.202061372102076
407,103.779204,30.564605995399965
408,104.160118,30.564605995399965
409,104.421943,30.564605995399965
410,104.665212,30.03790067316702
411,104.916301,30.202061372102076
412,105.141969,30.36744793345305
413,105.441762,30.202061372102076
414,105.675401,30.732301909895835
415,105.91822,30.732301909895835
416,106.155282,30.732301909895835
417,106.404216,30.732301909895835
418,106.7103,30.202061372102076
419,106.94708,30.202061372102076
420,107.176225,30.36744793345305
421,107.423182,30.36744793345305
422,107.658112,30.564605995399965
423,107.971699,30.202061372102076
424,108.211727,30.202061372102076
425,108.436817,30.202061372102076
426,108.675357,30.36744793345305
427,108.924152,30.202061372102076
428,109.24575,30.202061372102076
429,109.514555,30.36744793345305
430,109.784072,30.36744793345305
431,110.015314,30.36744793345305
432,110.241208,30.202061372102076
433,110.539757,30.53407236295653
434,110.807713,30.36744793345305
435,111.095182,30.36744793345305
436,111.348745,30.36744793345305
437,111.67544,30.202061372102076
438,111.932566,30.36744793345305
439,112.18236,30.53407236295653
440,112.409357,29.843841590736332
441,112.648483,30.53407236295653
442,112.956143,30.36744793345305
443,113.188475,30.53407236295653
444,113.414751,30.53407236295653
445,113.662572,30.202061372102076
446,114.021219,29.843841590736332
447,114.259822,30.53407236295653
448,114.510481,30.53407236295653
449,114.739136,30.36744793345305
450,114.96864,30.36744793345305
451,115.258866,30.00695240112037
452,115.50932,30.36744793345305
453,115.757999,30.36744793345305
454,115.988631,30.36744793345305
455,116.212391,30.17128105366419
456,116.517977,30.202061372102076
457,116.76987,30.53407236295653
458,116.987268,30.53407236295653
459,117.221047,30.53407236295653
460,117.468817,30.36744793345305
461,117.779233,30.53407236295653
462,118.008909,30.36744793345305
463,118.239671,30.53407236295653
464,118.473027,30.202061372102076
465,118.700344,30.122055420361658
466,118.999425,30.00695240112037
467,119.222683,30.53407236295653
468,119.458249,30.17128105366419
469,119.699211,30.00695240112037
470,119.956865,30.53407236295653
471,120.261439,30.36744793345305
472,120.512205,30.17128105366419
473,120.798299,30.28733339534621
474,121.035869,30.00695240112037
475,121.35021,30.00695240112037
476,121.605926,30.53407236295653
477,121.822412,30.53407236295653
478,122.063451,30.00695240112037
479,122.313137,30.00695240112037
480,122.630243,29.764472971302588
481,122.874579,30.53407236295653
482,123.123275,30.53407236295653
483,123.355602,30.53407236295653
484,123.592728,29.843841590736332
485,123.889102,30.53407236295653
486,124.131614,30.00695240112037
487,124.3602,30.53407236295653
488,124.594494,30.701946807853524
489,124.994922,30.53407236295653
490,125.262696,30.53407236295653
491,125.4938,30.00695240112037
492,125.738795,30.17128105366419
493,125.966392,30.17128105366419
494,126.266135,30.00695240112037
495,126.492505,30.53407236295653
496,126.718121,30.17128105366419
497,126.953506,30.53407236295653
498,127.1797,30.00695240112037
499,127.472252,30.701946807853524
500,127.733075,30.17128105366419
501,127.993249,30.00695240112037
502,128.223756,29.48989108283207
503,128.449768,30.17128105366419
504,128.742712,30.00695240112037
505,128.977004,30.17128105366419
506,129.193572,30.701946807853524
507,129.435968,30.00695240112037
508,129.666459,30.53407236295653
509,129.953847,30.17128105366419
510,130.202798,30.17128105366419
511,130.454986,30.17128105366419
512,130.68256,30.17128105366419
513,130.931752,30.17128105366419
514,131.220034,30.336839476544167
515,131.479745,30.53407236295653
516,131.726934,30.36744793345305
517,131.980654,30.17128105366419
518,132.210934,30.00695240112037
519,132.504556,30.00695240112037
520,132.737852,30.53407236295653
521,132.959081,30.00695240112037
522,133.21162,29.92747372098447
523,133.442442,29.650759231868772
524,133.753631,30.17128105366419
525,133.981881,30.17128105366419
526,134.218826,30.00695240112037
527,134.448386,30.17128105366419
528,134.696878,30.17128105366419
529,135.012878,30.17128105366419
530,135.318947,30.53407236295653
531,135.578723,30.17128105366419
532,135.829885,30.00695240112037
533,136.131619,30.17128105366419
534,136.372335,30.17128105366419
535,136.615097,29.411158118896726
536,136.852554,30.17128105366419
537,137.095732,30.17128105366419
538,137.412346,30.17128105366419
539,137.644895,30.53407236295653
540,137.874406,30.17128105366419
541,138.097137,30.336839476544167
542,138.333187,30.17128105366419
543,138.627959,30.336839476544167
544,138.889963,30.336839476544167
545,139.126581,30.17128105366419
546,139.347359,30.00695240112037
547,139.586288,30.17128105366419
548,139.877269,30.17128105366419
549,140.105594,30.336839476544167
550,140.329979,30.17128105366419
551,140.554433,29.81282553023341
552,140.790555,30.336839476544167
553,141.093061,30.00695240112037
554,141.360097,29.81282553023341
555,141.606994,29.81282553023341
556,141.856505,30.17128105366419
557,142.168026,30.17128105366419
558,142.413144,29.81282553023341
559,142.638836,30.17128105366419
560,142.860569,30.17128105366419
561,143.099052,29.81282553023341
562,143.399689,30.336839476544167
563,143.65412,29.81282553023341
564,143.887331,29.976101691167123
565,144.120795,30.336839476544167
566,144.344695,29.81282553023341
567,144.65167,29.81282553023341
568,144.887708,30.336839476544167
569,145.123154,29.81282553023341
570,145.365558,30.336839476544167
571,145.605668,29.650759231868772
572,145.916788,30.336839476544167
573,146.189982,30.336839476544167
574,146.427934,30.17128105366419
575,146.659231,30.336839476544167
576,146.896201,29.81282553023341
577,147.179961,29.81282553023341
578,147.414995,30.336839476544167
579,147.624526,30.336839476544167
580,147.858236,30.17128105366419
581,148.141876,30.17128105366419
582,148.457301,30.336839476544167
583,148.707451,29.92747372098447
584,148.963322,30.17128105366419
585,149.209644,30.17128105366419
586,149.44021,29.81282553023341
587,149.73349,30.17128105366419
588,149.961074,30.17128105366419
589,150.192554,30.17128105366419
590,150.422291,29.81282553023341
591,150.655913,30.17128105366419
592,150.93349,30.336839476544167
593,151.172861,30.17128105366419
594,151.425281,30.17128105366419
595,151.670333,29.81282553023341
596,151.903382,30.336839476544167
597,152.211931,30.336839476544167
598,152.44471,29.81282553023341
599,152.673174,30.336839476544167
600,152.905821,30.336839476544167
601,153.152126,30.336839476544167
602,153.473072,30.336839476544167
603,153.721745,30.336839476544167
604,153.951079,30.336839476544167
605,154.174429,30.336839476544167
606,154.406907,30.17128105366419
607,154.703148,30.17128105366419
608,154.953183,30.17128105366419
609,155.198906,30.09169430350516
610,155.42973,30.17128105366419
611,155.665703,30.336839476544167
612,156.204774,29.92747372098447
613,156.522767,30.17128105366419
