,time (s),surface tension (mN/m)
0,0.0,30.056343529331425
1,0.223976,29.89655812911686
2,0.438982,30.056343529331425
3,0.659082,30.056343529331425
4,0.891018,30.056343529331425
5,1.128963,29.705615454524892
6,1.35842,29.310962472991946
7,1.601382,29.547817772632243
8,1.816907,30.056343529331425
9,2.016362,29.547817772632243
10,2.232477,29.705615454524892
11,2.432391,30.056343529331425
12,2.622138,29.89655812911686
13,2.808841,29.705615454524892
14,2.980961,29.547817772632243
15,3.208125,29.705615454524892
16,3.484111,29.547817772632243
17,3.73013,30.056343529331425
18,3.961645,29.705615454524892
19,4.211103,29.705615454524892
20,4.416148,29.705615454524892
21,4.661938,29.547817772632243
22,4.89593,29.547817772632243
23,5.091423,29.547817772632243
24,5.305426,29.547817772632243
25,5.513764,29.547817772632243
26,5.768553,29.547817772632243
27,5.962663,29.547817772632243
28,6.152485,29.705615454524892
29,6.343741,29.310962472991946
30,6.544138,29.203749834272
31,6.734441,29.705615454524892
32,7.003601,29.547817772632243
33,7.239856,30.056343529331425
34,7.47875,29.547817772632243
35,7.716642,30.056343529331425
36,7.957599,29.815411887356664
37,8.217017,30.056343529331425
38,8.437268,29.705615454524892
39,8.683474,29.467495248707266
40,8.885352,29.705615454524892
41,9.100625,29.547817772632243
42,9.356425,29.547817772632243
43,9.594269,29.155575471884614
44,9.784656,29.656907326868986
45,9.974244,29.547817772632243
46,10.219976,29.310962472991946
47,10.428565,30.056343529331425
48,10.689313,29.547817772632243
49,10.943603,29.391175124094655
50,11.184669,29.547817772632243
51,11.466739,29.89655812911686
52,11.726763,29.547817772632243
53,11.933776,29.547817772632243
54,12.132114,29.547817772632243
55,12.355938,30.056343529331425
56,12.584885,29.547817772632243
57,12.802394,29.547817772632243
58,13.052099,29.705615454524892
59,13.259279,29.547817772632243
60,13.456802,29.547817772632243
61,13.689443,29.547817772632243
62,13.882304,29.547817772632243
63,14.071069,29.155575471884614
64,14.273376,29.705615454524892
65,14.481682,29.815411887356664
66,14.759716,29.547817772632243
67,14.985908,29.391175124094655
68,15.220078,29.705615454524892
69,15.465113,29.547817772632243
70,15.690809,29.547817772632243
71,15.941344,29.391175124094655
72,16.152466,29.547817772632243
73,16.359662,29.547817772632243
74,16.556157,30.056343529331425
75,16.76823,29.547817772632243
76,17.028918,30.056343529331425
77,17.239095,29.547817772632243
78,17.431474,29.04924289572176
79,17.621068,29.705615454524892
80,17.806394,29.547817772632243
81,17.994633,29.547817772632243
82,18.241054,29.547817772632243
83,18.471738,29.705615454524892
84,18.699002,29.467495248707266
85,18.932286,29.547817772632243
86,19.162569,29.705615454524892
87,19.434823,29.705615454524892
88,19.658705,29.705615454524892
89,19.869764,29.359393505410253
90,20.076369,29.547817772632243
91,20.267106,29.815411887356664
92,20.580246,29.04924289572176
93,20.8014,29.705615454524892
94,21.007996,29.547817772632243
95,21.252985,29.547817772632243
96,21.455698,29.815411887356664
97,21.683085,29.359393505410253
98,21.870365,29.705615454524892
99,22.058751,29.547817772632243
100,22.242372,29.359393505410253
101,22.481137,29.04924289572176
102,22.77312,29.467495248707266
103,23.003224,29.705615454524892
104,23.24393,29.547817772632243
105,23.483602,29.547817772632243
106,23.708646,29.865076669992586
107,23.949247,29.359393505410253
108,24.134877,29.547817772632243
109,24.3398,29.547817772632243
110,24.554143,29.04924289572176
111,24.768754,29.547817772632243
112,25.005601,29.705615454524892
113,25.196076,29.705615454524892
114,25.382852,29.310962472991946
115,25.570732,29.705615454524892
116,25.762381,29.310962472991946
117,25.953025,29.467495248707266
118,26.21853,29.705615454524892
119,26.481636,29.391175124094655
120,26.730017,29.705615454524892
121,26.976933,29.547817772632243
122,27.20992,29.547817772632243
123,27.449881,29.865076669992586
124,27.664839,29.04924289572176
125,27.868131,29.547817772632243
126,28.061743,29.705615454524892
127,28.276567,29.04924289572176
128,28.538206,29.359393505410253
129,28.729645,29.04924289572176
130,28.918287,29.467495248707266
131,29.116034,29.705615454524892
132,29.297435,29.865076669992586
133,29.486204,29.04924289572176
134,29.717397,29.467495248707266
135,29.967729,29.359393505410253
136,30.229144,29.547817772632243
137,30.490256,29.547817772632243
138,30.864559,29.203749834272
139,31.084113,29.547817772632243
140,31.291567,29.203749834272
141,31.544973,29.203749834272
142,31.74006,29.359393505410253
143,31.994308,29.62567822311292
144,32.218099,29.203749834272
145,32.433445,29.547817772632243
146,32.64695,29.359393505410253
147,32.827987,29.705615454524892
148,33.06628,29.203749834272
149,33.256051,29.04924289572176
150,33.428042,29.705615454524892
151,33.654073,29.12404861464739
152,33.884437,29.359393505410253
153,34.153368,29.359393505410253
154,34.405482,29.04924289572176
155,34.686185,29.865076669992586
156,34.892488,29.359393505410253
157,35.093756,29.359393505410253
158,35.338737,29.547817772632243
159,35.542475,29.359393505410253
160,35.753988,29.359393505410253
161,35.959713,29.203749834272
162,36.159421,29.203749834272
163,36.399959,29.12404861464739
164,36.598854,29.359393505410253
165,36.78764,29.359393505410253
166,36.976137,28.969652583136813
167,37.159228,29.359393505410253
168,37.378169,29.203749834272
169,37.675453,29.359393505410253
170,37.921836,29.359393505410253
171,38.163112,29.12404861464739
172,38.414977,29.359393505410253
173,38.623986,29.359393505410253
174,38.873064,29.705615454524892
175,39.123493,29.359393505410253
176,39.314351,29.547817772632243
177,39.520698,29.705615454524892
178,39.730295,29.547817772632243
179,39.979415,29.467495248707266
180,40.17989,29.705615454524892
181,40.380573,29.547817772632243
182,40.568613,29.12404861464739
183,40.755285,29.359393505410253
184,40.944529,29.04924289572176
185,41.202045,29.705615454524892
186,41.47631,29.705615454524892
187,41.713143,29.547817772632243
188,41.962751,29.705615454524892
189,42.185055,29.467495248707266
190,42.445476,29.865076669992586
191,42.663781,29.547817772632243
192,42.895448,29.203749834272
193,43.10073,29.705615454524892
194,43.299561,29.203749834272
195,43.557828,29.359393505410253
196,43.777529,29.359393505410253
197,43.966691,29.203749834272
198,44.155183,29.203749834272
199,44.343014,29.203749834272
200,44.530512,29.12404861464739
201,44.744798,29.359393505410253
202,44.9542,29.359393505410253
203,45.183532,29.359393505410253
204,45.428354,29.203749834272
205,45.659273,29.04924289572176
206,45.947687,29.203749834272
207,46.162809,29.203749834272
208,46.373264,29.359393505410253
209,46.57882,29.705615454524892
210,46.815722,29.359393505410253
211,47.074092,29.203749834272
212,47.308657,29.865076669992586
213,47.524321,29.203749834272
214,47.746026,29.359393505410253
215,47.935061,29.705615454524892
216,48.156906,29.705615454524892
217,48.354143,29.359393505410253
218,48.539721,29.62567822311292
219,48.714335,29.203749834272
220,48.940699,29.359393505410253
221,49.246774,29.865076669992586
222,49.482811,29.705615454524892
223,49.733145,29.705615454524892
224,49.96348,29.359393505410253
225,50.192203,29.359393505410253
226,50.440297,29.203749834272
227,50.63906,29.359393505410253
228,50.837908,29.203749834272
229,51.049598,29.705615454524892
230,51.359616,29.705615454524892
231,51.583587,29.359393505410253
232,51.776972,29.359393505410253
233,51.964297,29.359393505410253
234,52.154343,29.359393505410253
235,52.341934,29.203749834272
236,52.529454,29.359393505410253
237,52.788533,29.359393505410253
238,53.033375,29.516184745034302
239,53.295183,29.203749834272
240,53.576526,29.359393505410253
241,53.874971,29.359393505410253
242,54.099525,29.359393505410253
243,54.315838,29.359393505410253
244,54.563529,29.203749834272
245,54.768966,29.359393505410253
246,55.03357,29.359393505410253
247,55.266529,29.01726280502131
248,55.463368,29.359393505410253
249,55.662849,29.359393505410253
250,55.855915,29.705615454524892
251,56.082611,29.359393505410253
252,56.285136,29.359393505410253
253,56.476931,28.86374241701841
254,56.669151,29.359393505410253
255,56.852458,29.516184745034302
256,57.125505,29.01726280502131
257,57.367293,29.01726280502131
258,57.668155,29.27958301573507
259,57.898639,29.359393505410253
260,58.170431,29.359393505410253
261,58.384046,29.12404861464739
262,58.608798,29.516184745034302
263,58.799819,29.359393505410253
264,59.014423,29.516184745034302
265,59.257774,29.359393505410253
266,59.482101,29.62567822311292
267,59.676254,29.359393505410253
268,59.864683,29.865076669992586
269,60.051304,30.025014233477563
270,60.241779,29.359393505410253
271,60.477871,29.516184745034302
272,60.744124,29.359393505410253
273,60.980935,29.01726280502131
274,61.219389,29.01726280502131
275,61.458148,29.01726280502131
276,61.801044,29.516184745034302
277,62.016488,29.516184745034302
278,62.229601,29.674134513524443
279,62.49057,29.359393505410253
280,62.698299,29.359393505410253
281,62.962859,29.171912567664947
282,63.191287,29.359393505410253
283,63.390224,29.359393505410253
284,63.582165,29.359393505410253
285,63.771889,29.516184745034302
286,63.957605,29.359393505410253
287,64.18638,29.359393505410253
288,64.413006,29.359393505410253
289,64.683024,29.674134513524443
290,64.916984,29.674134513524443
291,65.164561,29.516184745034302
292,65.435822,29.359393505410253
293,65.644119,29.516184745034302
294,65.85181,29.674134513524443
295,66.065779,29.01726280502131
296,66.316606,29.674134513524443
297,66.554725,29.171912567664947
298,66.773891,29.359393505410253
299,66.986227,29.674134513524443
300,67.190806,29.171912567664947
301,67.383648,29.359393505410253
302,67.616602,29.359393505410253
303,67.814684,29.674134513524443
304,68.005375,29.516184745034302
305,68.176485,29.674134513524443
306,68.401666,29.516184745034302
307,68.667772,29.516184745034302
308,68.914559,29.674134513524443
309,69.153273,29.436266658921756
310,69.389494,29.674134513524443
311,69.653235,29.674134513524443
312,69.901391,29.359393505410253
313,70.135774,29.516184745034302
314,70.343205,29.674134513524443
315,70.562682,29.359393505410253
316,70.801952,29.674134513524443
317,71.033339,29.674134513524443
318,71.239094,29.674134513524443
319,71.431014,29.01726280502131
320,71.621451,29.674134513524443
321,71.809781,29.674134513524443
322,72.015415,29.516184745034302
323,72.28593,29.01726280502131
324,72.536463,29.359393505410253
325,72.786413,29.516184745034302
326,73.01953,29.516184745034302
327,73.331907,29.674134513524443
328,73.546533,29.674134513524443
329,73.772521,29.674134513524443
330,74.01872,29.171912567664947
331,74.224624,29.674134513524443
332,74.479146,29.171912567664947
333,74.698023,29.171912567664947
334,74.892914,29.171912567664947
335,75.08415,29.171912567664947
336,75.272289,29.171912567664947
337,75.458832,29.171912567664947
338,75.680493,29.171912567664947
339,75.87679,29.674134513524443
340,76.099735,29.674134513524443
341,76.338445,29.674134513524443
342,76.568849,29.674134513524443
343,76.863273,29.516184745034302
344,77.10915,29.27958301573507
345,77.318714,29.359393505410253
346,77.529765,28.938070524050666
347,77.781928,29.171912567664947
348,78.026941,29.674134513524443
349,78.257729,29.674134513524443
350,78.472919,29.32770247144054
351,78.696392,29.674134513524443
352,78.885425,29.171912567664947
353,79.112797,29.171912567664947
354,79.323295,29.674134513524443
355,79.518618,29.674134513524443
356,79.70809,29.171912567664947
357,79.928995,29.436266658921756
358,80.218563,29.674134513524443
359,80.473472,29.171912567664947
360,80.727628,29.171912567664947
361,80.97581,29.171912567664947
362,81.190915,29.171912567664947
363,81.454336,29.171912567664947
364,81.687338,29.171912567664947
365,81.899172,29.32770247144054
366,82.195652,29.674134513524443
367,82.42664,29.674134513524443
368,82.681318,29.171912567664947
369,82.882443,29.674134513524443
370,83.080234,29.171912567664947
371,83.274421,29.516184745034302
372,83.467155,29.674134513524443
373,83.651623,29.516184745034302
374,83.873966,29.674134513524443
375,84.075994,29.171912567664947
376,84.304848,29.171912567664947
377,84.558489,29.171912567664947
378,84.799266,29.171912567664947
379,85.067788,29.171912567664947
380,85.27531,29.674134513524443
381,85.471497,29.516184745034302
382,85.695753,29.674134513524443
383,85.900843,29.171912567664947
384,86.153021,29.171912567664947
385,86.363033,29.171912567664947
386,86.59261,29.171912567664947
387,86.779542,29.32770247144054
388,86.96689,29.674134513524443
389,87.19579,29.674134513524443
390,87.386981,29.171912567664947
391,87.575654,29.674134513524443
392,87.772797,29.171912567664947
393,88.017202,29.674134513524443
394,88.299,29.32770247144054
395,88.541183,29.674134513524443
396,88.785334,29.171912567664947
397,89.01758,29.516184745034302
398,89.224131,29.32770247144054
399,89.481826,29.32770247144054
400,89.694022,29.171912567664947
401,89.900563,29.171912567664947
402,90.123948,28.938070524050666
403,90.331533,29.171912567664947
404,90.552639,29.32770247144054
405,90.764749,29.32770247144054
406,90.953817,29.32770247144054
407,91.142711,29.32770247144054
408,91.333247,29.32770247144054
409,91.522455,29.32770247144054
410,91.798657,29.171912567664947
411,92.042107,29.171912567664947
412,92.284035,29.674134513524443
413,92.607613,29.674134513524443
414,92.920246,29.32770247144054
415,93.13756,29.171912567664947
416,93.34425,29.674134513524443
417,93.567278,28.67917173179683
418,93.75909,29.171912567664947
419,94.032304,29.171912567664947
420,94.251298,29.484643406524537
421,94.468598,28.67917173179683
422,94.670074,29.674134513524443
423,94.864596,29.484643406524537
424,95.083089,29.99377787422424
425,95.284438,29.674134513524443
426,95.471322,29.674134513524443
427,95.656927,29.674134513524443
428,95.852915,29.171912567664947
429,96.12371,29.32770247144054
430,96.39079,29.171912567664947
431,96.623837,29.32770247144054
432,96.867351,29.674134513524443
433,97.099785,29.32770247144054
434,97.347215,29.32770247144054
435,97.55758,29.32770247144054
436,97.760657,29.171912567664947
437,97.983049,28.98537148716858
438,98.185877,28.98537148716858
439,98.442956,29.32770247144054
440,98.643959,29.171912567664947
441,98.844673,29.674134513524443
442,99.035852,29.484643406524537
443,99.222552,29.171912567664947
444,99.408904,29.484643406524537
445,99.656656,28.753024756807427
446,99.897224,28.98537148716858
447,100.125619,29.32770247144054
448,100.356053,29.32770247144054
449,100.588033,29.32770247144054
450,100.87274,29.484643406524537
451,101.073727,29.484643406524537
452,101.274542,29.32770247144054
453,101.464112,28.98537148716858
454,101.664965,29.484643406524537
455,101.915412,29.484643406524537
456,102.136726,28.98537148716858
457,102.345205,29.484643406524537
458,102.551715,28.98537148716858
459,102.770579,29.484643406524537
460,103.015604,28.98537148716858
461,103.209316,29.32770247144054
462,103.402747,29.32770247144054
463,103.65263,29.32770247144054
464,103.88569,28.98537148716858
465,104.171637,28.98537148716858
466,104.42663,29.484643406524537
467,104.635472,29.484643406524537
468,104.843802,29.484643406524537
469,105.041821,29.32770247144054
470,105.321142,29.32770247144054
471,105.521841,29.484643406524537
472,105.74078,28.98537148716858
473,105.948456,29.24829451258666
474,106.141375,29.484643406524537
475,106.392565,29.32770247144054
476,106.596103,28.98537148716858
477,106.790891,29.484643406524537
478,106.990914,28.98537148716858
479,107.186181,28.98537148716858
480,107.374545,28.98537148716858
481,107.652155,29.484643406524537
482,107.91389,29.484643406524537
483,108.186955,28.98537148716858
484,108.428425,29.642746388454704
485,108.640136,29.484643406524537
486,108.889289,28.753024756807427
487,109.099713,29.32770247144054
488,109.382327,29.484643406524537
489,109.580371,29.484643406524537
490,109.793863,29.642746388454704
491,110.040875,28.98537148716858
492,110.257602,28.98537148716858
493,110.443642,28.98537148716858
494,110.632959,29.484643406524537
495,110.838267,29.642746388454704
496,111.023542,29.642746388454704
497,111.259861,29.642746388454704
498,111.482986,28.906577586607046
499,111.736311,29.06126482102045
500,111.962117,29.484643406524537
501,112.197249,29.484643406524537
502,112.487106,28.98537148716858
503,112.695931,29.32770247144054
504,112.905123,29.32770247144054
505,113.19729,28.98537148716858
506,113.388036,29.24829451258666
507,113.645463,29.484643406524537
508,113.886048,28.98537148716858
509,114.078763,29.484643406524537
510,114.2694,29.484643406524537
511,114.464355,28.98537148716858
512,114.69592,29.484643406524537
513,114.882078,29.484643406524537
514,115.096625,29.484643406524537
515,115.34518,29.484643406524537
516,115.578625,28.98537148716858
517,115.871112,29.484643406524537
518,116.109527,29.642746388454704
519,116.375645,29.32770247144054
520,116.588715,29.484643406524537
521,116.804554,29.484643406524537
522,117.041293,29.484643406524537
523,117.267826,28.98537148716858
524,117.477923,28.98537148716858
525,117.69095,29.140165142872377
526,117.878369,29.484643406524537
527,118.109968,28.98537148716858
528,118.297178,29.484643406524537
529,118.484988,29.140165142872377
530,118.671522,29.484643406524537
531,118.852746,29.484643406524537
532,119.084405,29.32770247144054
533,119.354587,29.642746388454704
534,119.609006,28.98537148716858
535,119.856315,29.642746388454704
536,120.097649,29.484643406524537
537,120.305044,29.140165142872377
538,120.569424,29.642746388454704
539,120.795872,29.140165142872377
540,120.995646,28.98537148716858
541,121.215051,29.296102370058662
542,121.425923,29.296102370058662
543,121.690334,29.484643406524537
544,121.88681,29.484643406524537
545,122.073772,29.484643406524537
546,122.261484,28.98537148716858
547,122.447855,29.484643406524537
548,122.638034,29.140165142872377
549,122.905875,29.484643406524537
550,123.134922,29.484643406524537
551,123.451037,29.642746388454704
552,123.700574,29.484643406524537
553,123.973699,29.484643406524537
554,124.191194,29.140165142872377
555,124.410734,29.484643406524537
556,124.663505,29.140165142872377
557,124.86825,29.484643406524537
558,125.125856,29.140165142872377
559,125.336726,29.484643406524537
560,125.556375,28.98537148716858
561,125.750957,29.32770247144054
562,125.951236,29.32770247144054
563,126.181165,29.484643406524537
564,126.376444,29.140165142872377
565,126.563569,28.98537148716858
566,126.747805,29.140165142872377
567,126.968941,29.484643406524537
568,127.273012,28.98537148716858
569,127.533088,28.98537148716858
570,127.771917,29.642746388454704
571,128.004409,28.98537148716858
572,128.233665,28.98537148716858
573,128.474476,28.98537148716858
574,128.712711,29.484643406524537
575,128.908158,29.642746388454704
576,129.14059,29.484643406524537
577,129.402302,28.98537148716858
578,129.629408,29.296102370058662
579,129.827542,29.296102370058662
580,130.024419,29.140165142872377
581,130.211036,28.98537148716858
582,130.39167,29.484643406524537
583,130.575189,29.484643406524537
584,130.842581,29.484643406524537
585,131.092665,29.140165142872377
586,131.320771,29.140165142872377
587,131.552426,28.98537148716858
588,131.807472,29.484643406524537
589,132.073376,29.484643406524537
590,132.282329,29.642746388454704
591,132.546061,28.98537148716858
592,132.748421,29.296102370058662
593,132.962833,28.98537148716858
594,133.225004,28.98537148716858
595,133.437238,29.642746388454704
596,133.635412,28.98537148716858
597,133.867448,28.98537148716858
598,134.055524,29.140165142872377
599,134.282522,29.484643406524537
600,134.472526,29.140165142872377
601,134.695605,29.32770247144054
602,134.945947,29.484643406524537
603,135.183576,29.484643406524537
604,135.480069,29.140165142872377
605,135.715474,29.484643406524537
606,135.923637,28.98537148716858
607,136.136216,28.98537148716858
608,136.419245,28.98537148716858
609,136.667156,29.140165142872377
610,136.90143,28.98537148716858
611,137.086793,29.642746388454704
612,137.300372,29.484643406524537
