,time (s),surface tension (mN/m)
0,0.0,39.202269283729365
1,0.210891,39.29550797080112
2,0.448143,39.29550797080112
3,0.690603,40.220398157281785
4,0.92294,39.48390906473327
5,1.215902,39.48390906473327
6,1.46398,38.888023903267545
7,1.695898,39.29550797080112
8,1.929064,39.29550797080112
9,2.17606,39.48390906473327
10,2.420631,39.29550797080112
11,2.640346,39.29550797080112
12,2.854427,39.074155938448364
13,3.050264,39.48390906473327
14,3.245484,39.202269283729365
15,3.49194,39.48390906473327
16,3.697933,39.074155938448364
17,3.892422,39.29550797080112
18,4.080084,39.48390906473327
19,4.328537,38.888023903267545
20,4.62083,39.80296965925023
21,4.828175,39.48390906473327
22,5.062216,39.29550797080112
23,5.315154,39.29550797080112
24,5.541664,39.074155938448364
25,5.813913,39.29550797080112
26,6.024462,39.61304613842415
27,6.280161,38.888023903267545
28,6.482184,39.389905410050346
29,6.717354,39.48390906473327
30,6.986336,39.48390906473327
31,7.191964,39.29550797080112
32,7.392098,39.48390906473327
33,7.581752,38.484791457594675
34,7.769341,39.80296965925023
35,7.961805,39.01585026651361
36,8.190294,39.074155938448364
37,8.418967,39.80296965925023
38,8.652625,39.074155938448364
39,8.898961,39.48390906473327
40,9.150359,39.6735453269201
41,9.441189,39.074155938448364
42,9.650887,38.888023903267545
43,9.870089,38.888023903267545
44,10.114658,39.202269283729365
45,10.370152,38.484791457594675
46,10.640527,39.074155938448364
47,10.87077,38.484791457594675
48,11.067571,39.074155938448364
49,11.258735,39.48390906473327
50,11.448792,38.795778407295884
51,11.637905,39.80296965925023
52,11.862531,39.074155938448364
53,12.064285,38.888023903267545
54,12.30386,38.668683310536856
55,12.577289,39.202269283729365
56,12.825744,39.202269283729365
57,13.135704,39.29550797080112
58,13.368332,39.074155938448364
59,13.580158,39.074155938448364
60,13.831514,39.202269283729365
61,14.078476,38.484791457594675
62,14.325453,38.888023903267545
63,14.558037,39.99413832944804
64,14.756922,39.074155938448364
65,14.960505,38.668683310536856
66,15.162754,38.30208989166973
67,15.397351,38.61160047108178
68,15.598701,38.795778407295884
69,15.787424,39.074155938448364
70,15.974513,39.074155938448364
71,16.167335,39.074155938448364
72,16.448883,38.981156248969086
73,16.709441,38.484791457594675
74,16.981854,39.074155938448364
75,17.232747,38.484791457594675
76,17.503069,38.888023903267545
77,17.735163,38.668683310536856
78,17.986319,39.389905410050346
79,18.236358,39.26150565863077
80,18.443605,39.074155938448364
81,18.723356,38.888023903267545
82,19.006728,39.074155938448364
83,19.203641,38.484791457594675
84,19.399579,38.795778407295884
85,19.595005,38.484791457594675
86,19.830304,39.074155938448364
87,20.027973,38.393525334525336
88,20.216533,38.888023903267545
89,20.556096,38.08576284535164
90,20.882112,38.484791457594675
91,21.14743,38.484791457594675
92,21.390649,38.484791457594675
93,21.605187,38.484791457594675
94,21.816497,38.668683310536856
95,22.141832,39.074155938448364
96,22.347973,38.888023903267545
97,22.56159,39.074155938448364
98,22.786666,38.484791457594675
99,23.003525,39.202269283729365
100,23.242549,38.981156248969086
101,23.432906,38.484791457594675
102,23.620923,38.30208989166973
103,23.817952,38.484791457594675
104,24.018242,38.2115600080607
105,24.299528,39.074155938448364
106,24.603457,38.484791457594675
107,24.834223,38.795778407295884
108,25.06608,38.668683310536856
109,25.297562,39.389905410050346
110,25.544427,38.668683310536856
111,25.798472,38.795778407295884
112,26.022018,37.90525615289699
113,26.231118,38.795778407295884
114,26.444085,38.484791457594675
115,26.702651,38.795778407295884
116,26.909657,38.484791457594675
117,27.105585,38.484791457594675
118,27.298855,38.484791457594675
119,27.489055,38.30208989166973
120,27.74912,38.484791457594675
121,27.944943,38.484791457594675
122,28.169486,38.668683310536856
123,28.426616,38.484791457594675
124,28.657464,38.668683310536856
125,28.952388,38.795778407295884
126,29.188953,38.30208989166973
127,29.408034,38.668683310536856
128,29.638537,38.08576284535164
129,29.920317,38.668683310536856
130,30.170533,38.61160047108178
131,30.407573,38.795778407295884
132,30.637327,38.795778407295884
133,30.914639,37.90525615289699
134,31.116766,38.668683310536856
135,31.358084,38.61160047108178
136,31.552119,38.2115600080607
137,31.741071,38.668683310536856
138,31.941779,37.90525615289699
139,32.153749,38.08576284535164
140,32.41748,37.90525615289699
141,32.673685,38.484791457594675
142,32.912825,38.08576284535164
143,33.166488,38.484791457594675
144,33.392577,38.26744300716757
145,33.646904,37.90525615289699
146,33.900592,38.08576284535164
147,34.14839,37.90525615289699
148,34.345067,37.90525615289699
149,34.565554,38.08576284535164
150,34.838269,38.08576284535164
151,35.044033,38.2115600080607
152,35.251292,38.30208989166973
153,35.445199,37.90525615289699
154,35.637351,38.393525334525336
155,35.837097,38.08576284535164
156,36.084221,38.2115600080607
157,36.299805,38.668683310536856
158,36.555539,37.90525615289699
159,36.809345,38.08576284535164
160,37.071568,37.90525615289699
161,37.365071,38.26744300716757
162,37.579466,37.90525615289699
163,37.802437,38.26744300716757
164,38.054677,38.26744300716757
165,38.286776,38.08576284535164
166,38.557439,37.90525615289699
167,38.781032,37.90525615289699
168,38.972792,37.90525615289699
169,39.16488,37.90525615289699
170,39.362308,38.2115600080607
171,39.553194,38.2115600080607
172,39.784844,38.08576284535164
173,39.978623,38.08576284535164
174,40.199847,37.90525615289699
175,40.434558,37.90525615289699
176,40.667685,37.90525615289699
177,41.001578,38.08576284535164
178,41.336705,38.2115600080607
179,41.54878,38.08576284535164
180,41.757441,38.08576284535164
181,42.059265,38.08576284535164
182,42.2737,37.90525615289699
183,42.497011,38.08576284535164
184,42.702879,38.795778407295884
185,42.903076,37.81568166587185
186,43.150599,38.668683310536856
187,43.351106,37.90525615289699
188,43.541205,37.81568166587185
189,43.735046,37.90525615289699
190,43.925885,38.08576284535164
191,44.213445,38.2115600080607
192,44.446351,37.51255117139695
193,44.692897,38.2115600080607
194,44.926272,37.690890857385405
195,45.172356,38.08576284535164
196,45.470727,38.2115600080607
197,45.803012,38.26744300716757
198,46.019636,38.08576284535164
199,46.239071,38.2115600080607
200,46.456053,38.08576284535164
201,46.736552,37.90525615289699
202,46.933504,38.2115600080607
203,47.131785,38.393525334525336
204,47.325268,38.26744300716757
205,47.513562,38.08576284535164
206,47.705744,37.90525615289699
207,47.938951,37.90525615289699
208,48.170428,37.90525615289699
209,48.422194,37.81568166587185
210,48.659633,38.08576284535164
211,48.909993,37.90525615289699
212,49.193362,38.08576284535164
213,49.412287,38.08576284535164
214,49.645561,38.393525334525336
215,49.897014,37.90525615289699
216,50.100229,37.90525615289699
217,50.359608,37.81568166587185
218,50.585448,38.08576284535164
219,50.775352,38.08576284535164
220,50.962875,37.51255117139695
221,51.163202,37.90525615289699
222,51.356254,37.51255117139695
223,51.616115,37.81568166587185
224,51.81248,37.51255117139695
225,52.034152,37.81568166587185
226,52.2729,37.690890857385405
227,52.502434,37.51255117139695
228,52.801512,37.90525615289699
229,53.046664,37.51255117139695
230,53.295986,37.9954624747781
231,53.558321,37.690890857385405
232,53.84995,37.51255117139695
233,54.068734,37.81568166587185
234,54.28281,37.51255117139695
235,54.497009,38.08576284535164
236,54.693538,37.81568166587185
237,54.928049,37.81568166587185
238,55.129544,37.33449507611764
239,55.319366,37.51255117139695
240,55.511808,37.51255117139695
241,55.703011,37.51255117139695
242,55.89371,37.90525615289699
243,56.166107,37.690890857385405
244,56.397374,38.08576284535164
245,56.637012,37.51255117139695
246,56.868404,37.81568166587185
247,57.11835,38.08576284535164
248,57.390961,37.81568166587185
249,57.620737,37.81568166587185
250,57.872039,38.08576284535164
251,58.07673,38.08576284535164
252,58.306387,37.90525615289699
253,58.578564,37.690890857385405
254,58.814777,37.51255117139695
255,59.015846,37.33449507611764
256,59.211601,38.2115600080607
257,59.410841,37.51255117139695
258,59.652348,38.393525334525336
259,59.852357,37.51255117139695
260,60.045438,37.81568166587185
261,60.273487,38.393525334525336
262,60.529941,37.81568166587185
263,60.823733,37.90525615289699
264,61.086753,37.51255117139695
265,61.321011,37.81568166587185
266,61.667282,37.51255117139695
267,62.096549,37.690890857385405
268,62.315962,37.33449507611764
269,62.530283,37.81568166587185
270,62.744714,38.08576284535164
271,62.943714,37.51255117139695
272,63.184278,37.51255117139695
273,63.383644,37.90525615289699
274,63.575989,37.51255117139695
275,63.800883,37.51255117139695
276,64.051048,37.690890857385405
277,64.354879,37.690890857385405
278,64.616244,37.51255117139695
279,64.868787,37.81568166587185
280,65.084009,37.690890857385405
281,65.310074,37.1229394414627
282,65.607457,37.51255117139695
283,65.813025,37.1229394414627
284,66.033195,37.9954624747781
285,66.225806,37.1229394414627
286,66.437189,37.51255117139695
287,66.678553,37.51255117139695
288,66.873315,37.690890857385405
289,67.060481,37.81568166587185
290,67.255495,37.81568166587185
291,67.453719,37.246264363476
292,67.655027,37.51255117139695
293,67.896605,37.51255117139695
294,68.14411,37.51255117139695
295,68.395642,37.690890857385405
296,68.636009,37.51255117139695
297,68.894796,37.1229394414627
298,69.140474,37.81568166587185
299,69.376733,37.51255117139695
300,69.631798,37.422921571119424
301,69.856413,37.1229394414627
302,70.074703,37.51255117139695
303,70.346274,37.1229394414627
304,70.54885,37.51255117139695
305,70.744648,37.690890857385405
306,70.939816,37.1229394414627
307,71.133481,37.1229394414627
308,71.323645,37.1229394414627
309,71.550118,37.690890857385405
310,71.757693,37.1229394414627
311,71.990893,37.1229394414627
312,72.323752,36.947698317950156
313,72.607852,37.422921571119424
314,72.875077,37.51255117139695
315,73.093932,37.51255117139695
316,73.31878,37.690890857385405
317,73.562404,37.51255117139695
318,73.840416,37.422921571119424
319,74.079236,37.81568166587185
320,74.294959,37.9954624747781
321,74.536552,37.1229394414627
322,74.74087,37.690890857385405
323,74.974547,37.690890857385405
324,75.185937,37.690890857385405
325,75.389397,37.422921571119424
326,75.581843,37.1229394414627
327,75.784071,37.1229394414627
328,76.014535,36.947698317950156
329,76.333054,37.690890857385405
330,76.54471,37.600737806592285
331,76.767214,37.1229394414627
332,77.002107,37.81568166587185
333,77.280934,37.422921571119424
334,77.499387,36.947698317950156
335,77.754424,37.422921571119424
336,77.991421,37.1229394414627
337,78.212691,37.1229394414627
338,78.479665,37.600737806592285
339,78.709718,37.1229394414627
340,78.900719,37.1229394414627
341,79.093884,37.299330302037895
342,79.283814,37.1229394414627
343,79.526329,37.422921571119424
344,79.719598,37.9954624747781
345,79.908704,37.422921571119424
346,80.139392,38.17640952826884
347,80.381764,37.81568166587185
348,80.672096,37.1229394414627
349,80.944866,37.1229394414627
350,81.178743,37.299330302037895
351,81.392842,37.299330302037895
352,81.638308,37.422921571119424
353,81.920712,37.422921571119424
354,82.1407,37.299330302037895
355,82.352787,37.1229394414627
356,82.703898,37.299330302037895
357,82.913139,37.299330302037895
358,83.151234,38.17640952826884
359,83.367191,37.600737806592285
360,83.55865,37.600737806592285
361,83.746621,37.81568166587185
362,83.932869,37.299330302037895
363,84.194377,37.600737806592285
364,84.433628,37.299330302037895
365,84.668228,37.422921571119424
366,84.913566,37.1229394414627
367,85.136789,36.73807808937457
368,85.411035,37.600737806592285
369,85.645756,37.299330302037895
370,85.91576,37.03495024094875
371,86.141955,37.600737806592285
372,86.357595,37.422921571119424
373,86.605736,37.422921571119424
374,86.852999,37.600737806592285
375,87.043292,37.422921571119424
376,87.236968,37.422921571119424
377,87.429966,37.03495024094875
378,87.663666,37.03495024094875
379,87.876202,37.600737806592285
380,88.130349,37.422921571119424
381,88.379458,37.422921571119424
382,88.630835,37.600737806592285
383,88.926781,37.600737806592285
384,89.172695,37.422921571119424
385,89.384038,37.422921571119424
386,89.639013,37.210605071695554
387,89.874432,37.03495024094875
388,90.11196,37.47746959503659
389,90.360681,37.1229394414627
390,90.603153,36.73807808937457
391,90.800488,37.600737806592285
392,90.999796,37.210605071695554
393,91.230029,37.1229394414627
394,91.433959,37.03495024094875
395,91.624249,37.299330302037895
396,91.823244,37.299330302037895
397,92.052395,37.299330302037895
398,92.319558,37.600737806592285
399,92.578925,36.73807808937457
400,92.832025,37.600737806592285
401,93.099699,37.210605071695554
402,93.313094,37.422921571119424
403,93.635459,37.78031660317807
404,93.876292,37.600737806592285
405,94.085662,37.422921571119424
406,94.298858,37.210605071695554
407,94.508206,37.600737806592285
408,94.783884,37.38741226617781
409,94.996069,37.03495024094875
410,95.191574,37.600737806592285
411,95.380276,37.210605071695554
412,95.571857,37.210605071695554
413,95.768757,37.600737806592285
414,96.044216,37.03495024094875
415,96.294092,37.210605071695554
416,96.546322,37.210605071695554
417,96.776047,37.210605071695554
418,97.025748,37.03495024094875
419,97.278341,37.03495024094875
420,97.505328,37.03495024094875
421,97.759113,37.210605071695554
422,97.96318,37.03495024094875
423,98.194279,37.299330302037895
424,98.462735,37.422921571119424
425,98.671818,36.73807808937457
426,98.86661,37.600737806592285
427,99.069581,37.210605071695554
428,99.264076,37.38741226617781
429,99.510665,37.03495024094875
430,99.715189,37.38741226617781
431,99.902831,37.210605071695554
432,100.13573,36.912324871043424
433,100.37857,37.210605071695554
434,100.680306,37.210605071695554
435,100.908937,37.210605071695554
436,101.149674,37.78031660317807
437,101.388383,37.210605071695554
438,101.665311,37.210605071695554
439,101.979663,37.03495024094875
440,102.184432,37.38741226617781
441,102.397321,37.210605071695554
442,102.624244,36.912324871043424
443,102.812625,37.38741226617781
444,103.057528,37.38741226617781
445,103.327917,37.38741226617781
446,103.520835,37.210605071695554
447,103.706185,37.210605071695554
448,103.94013,37.210605071695554
449,104.224329,37.210605071695554
450,104.481634,37.38741226617781
451,104.717944,37.38741226617781
452,104.959104,37.210605071695554
453,105.154823,37.38741226617781
454,105.430975,37.210605071695554
455,105.683519,37.210605071695554
456,105.899196,37.210605071695554
457,106.128061,37.38741226617781
458,106.358664,37.210605071695554
459,106.615832,37.38741226617781
460,106.816122,37.38741226617781
461,107.011687,37.38741226617781
462,107.20589,37.210605071695554
463,107.406411,37.38741226617781
464,107.599766,36.65105627690551
465,107.840458,37.210605071695554
466,108.075362,37.210605071695554
467,108.321764,37.38741226617781
468,108.56399,37.03495024094875
469,108.803375,37.03495024094875
470,109.072606,37.210605071695554
471,109.324899,37.38741226617781
472,109.544244,36.65105627690551
473,109.793335,37.38741226617781
474,110.001611,36.82457716119667
475,110.247672,37.210605071695554
476,110.477414,36.99923413927218
477,110.679847,36.99923413927218
478,110.874154,37.38741226617781
479,111.077515,37.210605071695554
480,111.315923,37.087714779100345
481,111.521762,37.210605071695554
482,111.725343,37.38741226617781
483,111.924852,37.210605071695554
484,112.168582,36.82457716119667
485,112.479191,36.82457716119667
486,112.728028,36.82457716119667
487,112.982688,37.087714779100345
488,113.235763,37.38741226617781
489,113.460014,36.82457716119667
490,113.777029,37.210605071695554
491,114.00873,36.82457716119667
492,114.229779,36.99923413927218
493,114.451195,36.99923413927218
494,114.661435,37.38741226617781
495,114.908114,36.82457716119667
496,115.11123,37.38741226617781
497,115.314767,36.99923413927218
498,115.50826,36.82457716119667
499,115.699989,36.82457716119667
500,115.901854,36.82457716119667
501,116.18911,37.38741226617781
502,116.497791,37.38741226617781
503,116.749178,36.99923413927218
504,116.99009,37.565381614290736
505,117.238526,37.087714779100345
506,117.449527,37.210605071695554
507,117.724524,36.82457716119667
508,117.931295,36.99923413927218
509,118.168459,36.82457716119667
510,118.431731,36.82457716119667
511,118.635754,36.82457716119667
512,118.825758,37.210605071695554
513,119.016295,36.82457716119667
514,119.206806,36.99923413927218
515,119.395528,37.17503684678106
516,119.625922,37.38741226617781
517,119.827575,37.38741226617781
518,120.058001,36.82457716119667
519,120.292905,36.82457716119667
520,120.538408,37.38741226617781
521,120.818859,36.82457716119667
522,121.062091,37.565381614290736
523,121.271412,36.82457716119667
524,121.497936,36.82457716119667
525,121.754353,36.99923413927218
526,122.007808,37.38741226617781
527,122.22896,37.38741226617781
528,122.439004,37.565381614290736
529,122.665203,37.565381614290736
530,122.860533,36.82457716119667
531,123.093505,36.82457716119667
532,123.294488,36.99923413927218
533,123.487299,36.82457716119667
534,123.675956,36.82457716119667
535,123.890643,36.99923413927218
536,124.174261,37.17503684678106
537,124.424048,36.82457716119667
538,124.663306,36.99923413927218
539,124.912548,36.99923413927218
540,125.155926,37.17503684678106
541,125.40075,36.99923413927218
542,125.667843,37.38741226617781
543,125.887355,36.99923413927218
544,126.105378,36.99923413927218
545,126.342077,36.99923413927218
546,126.593795,36.99923413927218
547,126.784542,37.17503684678106
548,126.974188,36.82457716119667
549,127.164923,37.17503684678106
550,127.365309,36.99923413927218
551,127.555902,37.17503684678106
552,127.82572,36.99923413927218
553,128.076121,36.44260795261622
554,128.332655,36.99923413927218
555,128.561104,36.99923413927218
556,128.80056,36.99923413927218
557,129.089053,36.61514204340813
558,129.313193,37.17503684678106
559,129.585044,36.99923413927218
560,129.830039,37.17503684678106
561,130.046056,36.99923413927218
562,130.31184,37.17503684678106
563,130.515892,36.99923413927218
564,130.713522,36.99923413927218
565,130.915546,37.17503684678106
566,131.108501,36.61514204340813
567,131.31081,36.99923413927218
568,131.547219,36.32163507423709
569,131.743817,36.78880567834646
570,131.960944,37.351995017838
571,132.191893,37.17503684678106
572,132.434746,36.61514204340813
573,132.734358,37.17503684678106
574,132.98459,36.99923413927218
575,133.226625,36.99923413927218
576,133.445022,37.17503684678106
577,133.699111,37.17503684678106
578,133.987678,36.99923413927218
579,134.237612,36.99923413927218
580,134.45401,36.61514204340813
581,134.661415,36.61514204340813
582,134.849289,36.78880567834646
583,135.084281,36.32163507423709
584,135.286513,37.351995017838
585,135.484956,37.17503684678106
586,135.678305,36.61514204340813
587,135.907093,37.17503684678106
588,136.200827,37.17503684678106
589,136.442697,36.78880567834646
590,136.687333,37.17503684678106
591,136.932279,37.17503684678106
592,137.141937,37.17503684678106
593,137.398398,36.99923413927218
594,137.666526,37.351995017838
595,137.87143,36.78880567834646
596,138.101631,36.78880567834646
597,138.321086,36.61514204340813
598,138.559146,36.32163507423709
599,138.764648,36.61514204340813
600,138.955945,36.78880567834646
601,139.147966,37.17503684678106
602,139.33868,37.17503684678106
603,139.529367,36.61514204340813
604,139.771396,36.78880567834646
605,140.004801,37.351995017838
606,140.253638,36.61514204340813
607,140.503209,36.78880567834646
608,140.752675,36.78880567834646
609,141.027948,36.667308162410144
610,141.239407,36.96360843811119
611,141.465706,36.61514204340813
612,141.715518,37.351995017838
613,141.913594,36.61514204340813
614,142.194047,36.61514204340813
615,142.420565,36.32163507423709
616,142.61785,36.78880567834646
617,142.819978,36.78880567834646
618,143.015917,36.493906621522584
