,time (s),surface tension (mN/m)
0,0.103313,70.81013239279804
1,0.339714,73.86794462394063
2,0.583036,72.02932101384634
3,0.818155,71.10481279494294
4,1.140833,72.61373501672878
5,1.39582,71.10481279494294
6,1.627638,72.02932101384634
7,1.877364,72.02932101384634
8,2.119066,72.02932101384634
9,2.45361,72.02932101384634
10,2.692228,72.33048070107844
11,2.921996,70.81013239279804
12,3.194858,71.72988336847203
13,3.429869,72.33048070107844
14,3.740928,73.27343641977745
15,4.026318,71.40118202358823
16,4.263099,71.72988336847203
17,4.491307,71.72988336847203
18,4.715789,72.33048070107844
19,5.03673,72.02932101384634
20,5.307309,71.72988336847203
21,5.542723,72.31186786694593
22,5.816031,73.86794462394063
23,6.125976,72.33048070107844
24,6.376265,72.33048070107844
25,6.62768,70.81013239279804
26,6.876888,72.61373501672878
27,7.123656,72.28098861829147
28,7.449684,70.81013239279804
29,7.684563,73.58124416037741
30,7.91269,72.96739780293059
31,8.164012,71.68172574767937
32,8.4053,71.68172574767937
33,8.747161,70.81013239279804
34,9.000952,72.31186786694593
35,9.240902,70.81013239279804
36,9.49902,71.72988336847203
37,9.728185,72.9173381802542
38,10.043589,72.02932101384634
39,10.337936,72.33048070107844
40,10.649092,71.9804995849591
41,10.902671,72.33048070107844
42,11.228317,71.68172574767937
43,11.485897,72.9173381802542
44,11.732188,72.31186786694593
45,11.965074,70.81013239279804
46,12.215609,72.9173381802542
47,12.531833,70.81013239279804
48,12.777057,72.33048070107844
49,13.034855,71.68172574767937
50,13.271552,71.3846544392901
51,13.509412,71.68172574767937
52,13.830664,71.3846544392901
53,14.069559,71.40118202358823
54,14.336809,70.81013239279804
55,14.589969,71.68172574767937
56,14.920943,71.10481279494294
57,15.182085,71.9804995849591
58,15.429389,71.9804995849591
59,15.680461,71.9804995849591
60,16.024088,71.9804995849591
61,16.270682,71.9804995849591
62,16.502221,71.3846544392901
63,16.745273,72.61373501672878
64,16.982928,72.02932101384634
65,17.30398,72.61373501672878
66,17.542262,72.9173381802542
67,17.78073,72.9173381802542
68,18.009764,72.33048070107844
69,18.250041,71.68172574767937
70,18.564929,71.9804995849591
71,18.821139,72.6333752812633
72,19.045228,71.10481279494294
73,19.306401,71.68172574767937
74,19.750873,72.33048070107844
75,20.009941,71.9804995849591
76,20.253254,71.40118202358823
77,20.483348,71.9804995849591
78,20.926575,72.28098861829147
79,21.175333,71.9804995849591
80,21.42689,72.61373501672878
81,21.655388,72.6333752812633
82,21.902351,71.68172574767937
83,22.230631,69.90363503939824
84,22.471096,70.19364416820206
85,22.698951,71.10481279494294
86,22.928274,70.81013239279804
87,23.16725,71.10481279494294
88,23.480655,72.61373501672878
89,23.718506,70.81013239279804
90,23.963228,72.02932101384634
91,24.209253,72.6333752812633
92,24.430947,72.6333752812633
93,24.743779,71.68172574767937
94,24.97277,72.6333752812633
95,25.203509,70.77864366134766
96,25.430188,72.28098861829147
97,25.670966,71.9804995849591
98,25.991792,71.9804995849591
99,26.235789,71.40118202358823
100,26.477486,71.68172574767937
101,26.710139,71.69925264394746
102,26.942808,72.61373501672878
103,27.25285,72.02932101384634
104,27.569345,72.02932101384634
105,27.798448,72.02932101384634
106,28.045124,72.6333752812633
107,28.37515,71.68172574767937
108,28.628609,71.3846544392901
109,28.87874,72.28098861829147
110,29.108192,72.33048070107844
111,29.350645,71.40118202358823
112,29.668688,73.58124416037741
113,29.909695,72.33048070107844
114,30.131865,72.6333752812633
115,30.364125,72.33048070107844
116,30.590639,72.02932101384634
117,30.902976,71.10481279494294
118,31.207182,72.33048070107844
119,31.471539,72.28098861829147
120,31.697127,71.40118202358823
121,32.012178,71.4519339951873
122,32.245415,72.61373501672878
123,32.492242,71.10481279494294
124,32.725802,71.10481279494294
125,32.974456,72.02932101384634
126,33.281799,72.61373501672878
127,33.529664,72.02932101384634
128,33.795589,71.40118202358823
129,34.03655,71.9804995849591
130,34.269587,71.10481279494294
131,34.58315,72.6333752812633
132,34.83538,71.10481279494294
133,35.084369,72.33048070107844
134,35.308588,71.69925264394746
135,35.538055,72.6333752812633
136,35.840708,72.33048070107844
137,36.104113,72.6333752812633
138,36.337186,72.28098861829147
139,36.589467,71.69925264394746
140,36.820152,71.35291022222174
141,37.14207,71.40118202358823
142,37.443809,72.28098861829147
143,37.673597,72.33048070107844
144,37.909041,72.6333752812633
145,38.141454,72.33048070107844
146,38.472963,72.33048070107844
147,38.733056,72.6333752812633
148,38.971408,71.05719619175875
149,39.217163,73.22269031288529
150,39.454247,72.6333752812633
151,39.761699,71.9804995849591
152,39.985313,70.81013239279804
153,40.225605,71.10481279494294
154,40.453247,71.40118202358823
155,40.70011,71.10481279494294
156,41.01392,71.9804995849591
157,41.244165,71.40118202358823
158,41.54372,71.99903733409353
159,41.826698,71.69925264394746
160,42.132708,71.69925264394746
161,42.410174,71.69925264394746
162,42.642829,70.77864366134766
163,42.89273,72.28098861829147
164,43.222066,71.40118202358823
165,43.468549,71.40118202358823
166,43.708181,71.9804995849591
167,43.959423,71.40118202358823
168,44.174743,71.69925264394746
169,44.516592,71.40118202358823
170,44.771359,72.33048070107844
171,45.02112,71.40118202358823
172,45.260075,71.40118202358823
173,45.504485,70.77864366134766
174,45.858628,70.48530961340741
175,46.102958,71.40118202358823
176,46.343984,70.77864366134766
177,46.589868,71.69925264394746
178,46.832359,71.40118202358823
179,47.152338,70.19364416820206
180,47.407634,71.9804995849591
181,47.664314,71.40118202358823
182,47.903812,71.69925264394746
183,48.236683,72.6333752812633
184,48.479726,71.69925264394746
185,48.719809,70.77864366134766
186,48.967448,71.40118202358823
187,49.199277,70.77864366134766
188,49.537845,71.69925264394746
189,49.781893,71.40118202358823
190,50.025586,71.40118202358823
191,50.256266,71.40118202358823
192,50.495145,71.07365870835902
193,50.822971,71.99903733409353
194,51.07892,72.6333752812633
195,51.32842,70.19364416820206
196,51.56894,70.48530961340741
197,51.809752,70.19364416820206
198,52.182717,70.48530961340741
199,52.436941,70.48530961340741
200,52.704022,71.40118202358823
201,52.938572,71.69925264394746
202,53.169401,71.99903733409353
203,53.502471,71.69925264394746
204,53.755386,72.9380177212925
205,53.993276,72.9380177212925
206,54.231471,70.48530961340741
207,54.464481,70.77864366134766
208,54.786314,70.48530961340741
209,55.048063,72.9380177212925
210,55.300438,70.77864366134766
211,55.550185,70.77864366134766
212,55.860773,70.77864366134766
213,56.09365,71.40118202358823
214,56.33953,71.40118202358823
215,56.633841,71.40118202358823
216,57.014338,71.40118202358823
217,57.244699,71.40118202358823
218,57.474218,71.40118202358823
219,57.723106,71.99903733409353
220,57.953138,72.30054888615416
221,58.272702,70.77864366134766
222,58.551552,70.48530961340741
223,58.806783,71.40118202358823
224,59.05913,70.48530961340741
225,59.361513,71.40118202358823
226,59.620196,70.77864366134766
227,59.849572,71.40118202358823
228,60.089403,71.69925264394746
229,60.33403,71.99903733409353
230,60.663036,71.40118202358823
231,60.919756,71.07365870835902
232,61.147641,71.69925264394746
233,61.407994,71.99903733409353
234,61.657109,71.69925264394746
235,61.964902,70.48530961340741
236,62.213918,72.58320562861361
237,62.502484,71.69925264394746
238,62.839412,72.9380177212925
239,63.14723,69.5826371531503
240,63.401178,71.99903733409353
241,63.642522,72.88716351184293
242,63.877871,71.40118202358823
243,64.110274,70.48530961340741
244,64.443687,71.99903733409353
245,64.681339,72.58320562861361
246,64.905836,70.77864366134766
247,65.130635,72.58320562861361
248,65.386728,72.28098861829147
249,65.711131,72.28098861829147
250,65.946529,72.58320562861361
251,66.183402,71.07365870835902
252,66.423831,71.69925264394746
253,66.655861,71.99903733409353
254,66.967603,72.9380177212925
255,67.201773,71.69925264394746
256,67.438228,72.9380177212925
257,67.676277,71.99903733409353
258,67.934975,71.99903733409353
259,68.252168,71.40118202358823
260,68.577676,71.69925264394746
261,68.812941,71.99903733409353
262,69.045694,71.07365870835902
263,69.349546,71.99903733409353
264,69.600719,70.77864366134766
265,69.840771,72.58320562861361
266,70.066392,71.07365870835902
267,70.305111,71.99903733409353
268,70.620917,71.40118202358823
269,70.861901,71.69925264394746
270,71.087164,71.40118202358823
271,71.317474,72.28098861829147
272,71.546571,71.07365870835902
273,71.843028,71.99903733409353
274,72.112297,71.07365870835902
275,72.36122,70.77864366134766
276,72.607632,72.58320562861361
277,73.041582,71.69925264394746
278,73.29368,71.99903733409353
279,73.550316,70.48530961340741
280,73.806339,72.58320562861361
281,74.130485,71.99903733409353
282,74.375162,71.99903733409353
283,74.611725,71.99903733409353
284,74.846177,70.48530961340741
285,75.071474,71.9804995849591
286,75.415748,72.28098861829147
287,75.696519,71.65031889063766
288,75.952365,72.58320562861361
289,76.200782,72.58320562861361
290,76.529069,71.99903733409353
291,76.775445,72.28098861829147
292,77.018531,72.58320562861361
293,77.243519,71.40118202358823
294,77.477005,72.58320562861361
295,77.807625,72.30054888615416
296,78.068392,70.77864366134766
297,78.332001,71.07365870835902
298,78.583497,72.58320562861361
299,78.915362,73.5298044867212
300,79.155808,71.07365870835902
301,79.405855,70.48530961340741
302,79.645744,71.99903733409353
303,79.894298,72.58320562861361
304,80.221941,71.99903733409353
305,80.463598,72.60380020752244
306,80.690426,72.30054888615416
307,80.946199,70.77864366134766
308,81.193113,71.99903733409353
309,81.515258,71.99903733409353
310,81.780188,72.28098861829147
311,82.006464,71.07365870835902
312,82.258699,71.99903733409353
313,82.502896,71.99903733409353
314,82.826356,71.65031889063766
315,83.086525,70.77864366134766
316,83.474281,73.19287528009735
317,83.770406,72.25027069050587
318,84.160364,71.07365870835902
319,84.406251,71.65031889063766
320,84.644974,71.65031889063766
321,84.887642,72.58320562861361
322,85.125753,71.65031889063766
323,85.456095,72.60380020752244
324,85.721197,72.88716351184293
325,85.949507,71.66878194193991
326,86.190181,72.60380020752244
327,86.543621,73.19287528009735
328,86.807822,72.58320562861361
329,87.058391,72.58320562861361
330,87.291501,69.5826371531503
331,87.536367,71.66878194193991
332,87.851793,70.45364454873912
333,88.09012,71.07365870835902
334,88.330043,71.94943480598789
335,88.566213,71.99903733409353
336,88.793737,72.30054888615416
337,89.100807,71.40118202358823
338,89.360757,72.58320562861361
339,89.620458,73.19287528009735
340,89.868788,71.07365870835902
341,90.174807,73.19287528009735
342,90.422375,71.02527421078285
343,90.660676,69.8713202444055
344,90.906816,73.83869389183833
345,91.153559,71.02527421078285
346,91.456792,71.99903733409353
347,91.715511,72.58320562861361
348,91.955889,71.07365870835902
349,92.193959,70.16165196631994
350,92.424809,70.77864366134766
351,92.723273,71.94943480598789
352,92.988032,71.37036726194255
353,93.219145,72.88716351184293
354,93.471434,71.65031889063766
355,93.69786,71.94943480598789
356,94.035378,72.25027069050587
357,94.283024,71.94943480598789
358,94.525447,71.65031889063766
359,94.766979,72.25027069050587
360,95.015014,70.7309125298979
361,95.329034,73.19287528009735
362,95.582224,72.30054888615416
363,95.855791,71.94943480598789
364,96.089066,69.8713202444055
365,96.324946,72.88716351184293
366,96.655299,71.94943480598789
367,96.895304,71.65031889063766
368,97.148118,71.94943480598789
369,97.374285,71.94943480598789
370,97.605515,71.07365870835902
371,97.920616,71.94943480598789
372,98.157978,70.16165196631994
373,98.418758,71.02527421078285
374,98.675615,71.94943480598789
375,98.912708,71.69925264394746
376,99.278626,71.66878194193991
377,99.528896,71.07365870835902
378,99.759932,71.94943480598789
379,99.986869,71.65031889063766
380,100.223669,71.07365870835902
381,100.541486,71.99903733409353
382,100.782113,71.37036726194255
383,101.015797,71.37036726194255
384,101.247944,71.37036726194255
385,101.51054,71.37036726194255
386,101.838368,71.07365870835902
387,102.095052,72.25027069050587
388,102.343995,71.65031889063766
389,102.588849,71.07365870835902
390,102.827349,71.65031889063766
391,103.161104,71.07365870835902
392,103.396879,72.25027069050587
393,103.636606,72.60380020752244
394,103.873504,72.88716351184293
395,104.103726,73.19287528009735
396,104.472652,71.37036726194255
397,104.725203,71.94943480598789
398,104.963262,71.02527421078285
399,105.199358,71.94943480598789
400,105.458584,73.19287528009735
401,105.751354,71.94943480598789
402,106.004983,71.65031889063766
403,106.248163,71.94943480598789
404,106.488098,71.37036726194255
405,106.73216,71.37036726194255
406,107.036941,71.37036726194255
407,107.288366,71.07365870835902
408,107.509824,71.65031889063766
409,107.743164,71.65031889063766
410,108.036766,71.37036726194255
411,108.356764,71.65031889063766
412,108.625694,71.99903733409353
413,108.888242,71.94943480598789
414,109.114852,71.99903733409353
415,109.479331,71.37036726194255
416,109.7399,72.88716351184293
417,109.997201,70.7309125298979
418,110.243955,72.88716351184293
419,110.56669,71.02527421078285
420,110.824826,71.94943480598789
421,111.075695,70.77864366134766
422,111.309106,70.77864366134766
423,111.552534,71.94943480598789
424,111.865917,71.02527421078285
425,112.116925,72.25027069050587
426,112.376211,70.77864366134766
427,112.63078,72.60380020752244
428,112.97842,71.37036726194255
429,113.22501,71.07365870835902
430,113.477321,71.37036726194255
431,113.709704,71.37036726194255
432,113.957993,72.58320562861361
433,114.270882,71.07365870835902
434,114.541426,71.37036726194255
435,114.9112,71.65031889063766
436,115.147463,72.30054888615416
437,115.453468,71.07365870835902
438,115.712176,73.19287528009735
439,115.941674,72.90880432208203
440,116.191118,70.7309125298979
441,116.440703,72.60380020752244
442,116.780315,72.55283938087742
443,117.072297,72.90880432208203
444,117.319765,70.45364454873912
445,117.570276,72.88716351184293
446,117.905036,71.02527421078285
447,118.162155,71.37036726194255
448,118.391957,71.37036726194255
449,118.657304,73.19287528009735
450,118.902819,71.35291022222174
451,119.22985,72.30054888615416
452,119.502408,70.45364454873912
453,119.738723,71.94943480598789
454,119.970512,72.25027069050587
455,120.210923,72.25027069050587
456,120.555406,71.02527421078285
457,120.8077,71.37036726194255
458,121.041607,72.60380020752244
459,121.289226,71.94943480598789
460,121.532694,71.94943480598789
461,121.837108,71.94943480598789
462,122.076011,71.66878194193991
463,122.31068,71.94943480598789
464,122.564649,71.07365870835902
465,122.805222,71.02527421078285
466,123.149077,71.37036726194255
467,123.402707,71.07365870835902
468,123.632151,71.37036726194255
469,123.86682,71.94943480598789
470,124.109873,71.37036726194255
471,124.428339,71.07365870835902
472,124.688167,71.37036726194255
473,124.939861,70.45364454873912
474,125.225621,72.25027069050587
475,125.567447,71.02527421078285
476,125.81856,71.37036726194255
477,126.063317,71.37036726194255
478,126.325707,71.37036726194255
479,126.566981,71.32132266711749
480,126.893051,72.25027069050587
481,127.194523,71.94943480598789
482,127.427332,71.37036726194255
483,127.667009,71.37036726194255
484,127.98292,71.37036726194255
485,128.244716,71.02527421078285
486,128.489539,72.55283938087742
487,128.727937,71.37036726194255
488,129.057462,71.37036726194255
489,129.303529,71.37036726194255
490,129.554367,71.37036726194255
491,129.788156,71.02527421078285
492,130.037473,71.66878194193991
493,130.401479,71.02527421078285
494,130.65461,71.37036726194255
495,130.893397,70.45364454873912
496,131.143421,70.45364454873912
497,131.388031,70.45364454873912
498,131.762434,70.45364454873912
499,132.026582,70.45364454873912
500,132.273086,71.37036726194255
501,132.501078,72.60380020752244
502,132.737368,71.37036726194255
503,133.043793,70.45364454873912
504,133.293129,72.30054888615416
505,133.547142,70.45364454873912
506,133.793886,71.66878194193991
507,134.116973,71.37036726194255
508,134.370961,71.66878194193991
509,134.611637,71.37036726194255
510,134.846507,71.02527421078285
511,135.087744,71.37036726194255
512,135.433177,71.37036726194255
513,135.790015,71.94943480598789
514,136.039468,71.66878194193991
515,136.277914,70.45364454873912
516,136.586684,71.96891548172395
517,136.849457,70.45364454873912
518,137.081878,71.32132266711749
519,137.321912,71.37036726194255
520,137.561966,71.66878194193991
521,137.880104,70.74731033100564
522,138.12046,70.74731033100564
523,138.371994,71.65031889063766
524,138.596198,71.96891548172395
525,138.827697,70.45364454873912
526,139.143362,71.66878194193991
527,139.395663,70.74731033100564
528,139.641462,70.74731033100564
529,139.891135,71.66878194193991
530,140.232293,72.25027069050587
531,140.491116,71.02527421078285
532,140.812872,71.37036726194255
533,141.06095,70.74731033100564
534,141.386621,71.37036726194255
535,141.648745,71.66878194193991
536,141.876687,71.37036726194255
537,142.10772,71.66878194193991
538,142.346091,71.66878194193991
539,142.648369,70.74731033100564
540,142.961668,71.96891548172395
541,143.190605,71.96891548172395
542,143.447092,71.37036726194255
543,143.754321,71.66878194193991
544,144.074735,71.96891548172395
545,144.380756,71.37036726194255
546,144.618553,71.37036726194255
547,144.939144,71.66878194193991
548,145.17729,70.74731033100564
549,145.414019,71.66878194193991
550,145.656553,71.66878194193991
551,146.088178,71.37036726194255
552,146.329424,71.66878194193991
553,146.578208,71.94943480598789
554,146.846768,71.66878194193991
555,147.072603,71.37036726194255
556,147.417701,71.37036726194255
557,147.647338,71.37036726194255
558,147.894868,71.66878194193991
559,148.153668,71.66878194193991
560,148.395181,71.66878194193991
561,148.745942,70.45364454873912
562,148.988917,70.74731033100564
563,149.292955,70.74731033100564
564,149.554209,71.96891548172395
565,149.866431,70.74731033100564
566,150.115924,71.66878194193991
567,150.355626,70.74731033100564
568,150.611935,71.37036726194255
569,150.854415,70.74731033100564
570,151.190887,70.74731033100564
571,151.425554,71.07365870835902
572,151.659052,71.66878194193991
573,151.925128,71.37036726194255
574,152.1735,71.37036726194255
575,152.489912,71.66878194193991
576,152.738451,70.74731033100564
577,152.978666,69.8391563903648
578,153.206805,70.74731033100564
579,153.446637,70.74731033100564
580,153.785003,71.04266176311572
581,154.020808,70.74731033100564
582,154.239564,71.66878194193991
583,154.524357,71.04266176311572
584,154.761666,70.45364454873912
585,155.063641,71.32132266711749
586,155.321658,71.6190704499118
587,155.554117,70.1298123831784
588,155.789139,71.32132266711749
589,156.028345,70.45364454873912
590,156.455857,71.33971140688989
591,156.703667,71.04266176311572
592,156.955524,70.74731033100564
593,157.209436,71.33971140688989
594,157.455482,70.74731033100564
595,157.783925,71.04266176311572
596,158.030368,71.96891548172395
597,158.271559,70.74731033100564
598,158.510106,70.74731033100564
599,158.751457,71.04266176311572
600,159.082437,71.66878194193991
601,159.326551,70.74731033100564
602,159.560764,71.32132266711749
603,159.792125,70.74731033100564
604,160.019679,71.32132266711749
605,160.336617,71.04266176311572
606,160.593465,71.04266176311572
607,160.828024,69.8391563903648
608,161.089068,71.96891548172395
609,161.427341,71.32132266711749
610,161.675684,70.45364454873912
611,161.941937,71.6190704499118
612,162.183061,71.66878194193991
613,162.416525,70.74731033100564
614,162.754358,71.32132266711749
615,163.010961,73.1632271054879
616,163.239331,71.33971140688989
617,163.461682,69.8391563903648
618,163.717749,70.74731033100564
619,164.04005,72.27078072940338
620,164.275856,71.96891548172395
621,164.518588,71.6190704499118
622,164.771955,71.91853022290736
623,165.012182,72.85715382945509
