,time (s),surface tension (mN/m)
0,0.0,39.261401898364035
1,0.242074,39.63312889795083
2,0.473005,39.63312889795083
3,0.7231,39.44666848982356
4,0.971758,39.44666848982356
5,1.259352,39.04179597939323
6,1.538035,39.63312889795083
7,1.765904,39.04179597939323
8,2.014577,39.04179597939323
9,2.346349,39.63312889795083
10,2.579619,38.858732139944486
11,2.811372,39.04179597939323
12,3.053061,39.44666848982356
13,3.435805,38.858732139944486
14,3.658397,39.04179597939323
15,3.896273,39.44666848982356
16,4.123668,38.858732139944486
17,4.350588,38.858732139944486
18,4.665422,38.858732139944486
19,4.893781,39.44666848982356
20,5.131685,39.261401898364035
21,5.360441,39.44666848982356
22,5.589215,39.63312889795083
23,5.894346,38.858732139944486
24,6.154393,38.858732139944486
25,6.392512,38.858732139944486
26,6.643634,38.858732139944486
27,6.861876,38.858732139944486
28,7.16593,39.261401898364035
29,7.408025,39.44666848982356
30,7.63226,39.261401898364035
31,7.865788,38.858732139944486
32,8.093473,39.63312889795083
33,8.389305,38.858732139944486
34,8.643893,39.04179597939323
35,8.878655,39.04179597939323
36,9.117008,38.858732139944486
37,9.34773,39.261401898364035
38,9.639158,38.858732139944486
39,9.879994,38.94668251087856
40,10.11434,38.858732139944486
41,10.40156,39.04179597939323
42,10.71839,39.261401898364035
43,10.957956,39.04179597939323
44,11.181851,38.858732139944486
45,11.411237,38.54724055313859
46,11.641434,39.04179597939323
47,11.93912,39.04179597939323
48,12.172252,38.858732139944486
49,12.396644,38.858732139944486
50,12.625875,39.04179597939323
51,12.85548,38.54724055313859
52,13.184089,38.858732139944486
53,13.440655,39.04179597939323
54,13.689002,38.54724055313859
55,13.924622,39.04179597939323
56,14.173119,38.858732139944486
57,14.477925,38.54724055313859
58,14.714271,38.36680208461854
59,14.948142,38.858732139944486
60,15.172804,38.54724055313859
61,15.398872,38.54724055313859
62,15.691486,38.858732139944486
63,15.94494,38.54724055313859
64,16.179661,38.36680208461854
65,16.412024,38.858732139944486
66,16.637053,38.54724055313859
67,16.935979,38.858732139944486
68,17.190077,38.858732139944486
69,17.456976,38.858732139944486
70,17.701695,38.858732139944486
71,18.009208,38.858732139944486
72,18.260811,38.858732139944486
73,18.491158,37.97262842654138
74,18.719838,38.858732139944486
75,18.956732,38.858732139944486
76,19.27204,38.54724055313859
77,19.52167,38.858732139944486
78,19.746482,38.331350261028234
79,19.98098,38.36680208461854
80,20.204186,38.72883695289756
81,20.504658,39.04179597939323
82,20.812691,39.04179597939323
83,21.040591,39.04179597939323
84,21.295682,38.54724055313859
85,21.593527,38.45941132266323
86,21.837382,38.858732139944486
87,22.078277,38.45941132266323
88,22.316496,38.858732139944486
89,22.551069,38.72883695289756
90,22.856761,38.15112069142561
91,23.109536,38.72883695289756
92,23.357182,38.15112069142561
93,23.602313,38.331350261028234
94,23.847845,38.72883695289756
95,24.169832,38.858732139944486
96,24.431487,38.54724055313859
97,24.676412,38.45941132266323
98,24.9224,38.15112069142561
99,25.146768,38.331350261028234
100,25.463924,38.64109728690835
101,25.718325,38.45941132266323
102,25.937374,38.45941132266323
103,26.178708,38.45941132266323
104,26.412161,38.15112069142561
105,26.695145,38.15112069142561
106,26.929931,38.331350261028234
107,27.164276,38.64109728690835
108,27.40983,38.15112069142561
109,27.636095,38.15112069142561
110,27.93529,38.15112069142561
111,28.190604,38.72883695289756
112,28.41874,38.72883695289756
113,28.64611,38.15112069142561
114,28.883623,38.15112069142561
115,29.203666,38.331350261028234
116,29.455964,39.04179597939323
117,29.698525,38.331350261028234
118,29.992285,38.54724055313859
119,30.292642,38.15112069142561
120,30.563969,38.15112069142561
121,30.798472,38.15112069142561
122,31.088747,38.15112069142561
123,31.445479,39.04179597939323
124,31.678298,38.15112069142561
125,31.899954,38.15112069142561
126,32.140927,38.331350261028234
127,32.404885,38.72883695289756
128,32.710289,38.15112069142561
129,32.950996,38.15112069142561
130,33.195617,38.72883695289756
131,33.450355,38.45941132266323
132,33.674194,38.15112069142561
133,33.976636,38.15112069142561
134,34.2305,38.331350261028234
135,34.486502,38.45941132266323
136,34.729611,38.15112069142561
137,34.974004,38.15112069142561
138,35.254692,38.15112069142561
139,35.519368,38.51194038570301
140,35.761608,38.331350261028234
141,35.991276,38.15112069142561
142,36.221141,38.331350261028234
143,36.517746,38.64109728690835
144,36.815433,38.15112069142561
145,37.058332,38.54724055313859
146,37.308383,37.9370343250855
147,37.620945,38.15112069142561
148,37.870515,38.331350261028234
149,38.100135,38.15112069142561
150,38.335101,38.15112069142561
151,38.568824,38.331350261028234
152,38.883478,38.331350261028234
153,39.125909,38.331350261028234
154,39.354121,38.331350261028234
155,39.611534,38.64109728690835
156,39.847084,38.331350261028234
157,40.167634,37.759543896919496
158,40.399421,38.331350261028234
159,40.647734,38.64109728690835
160,40.880439,38.15112069142561
161,41.112569,37.759543896919496
162,41.457259,38.331350261028234
163,41.716352,38.331350261028234
164,41.947622,37.759543896919496
165,42.194662,38.64109728690835
166,42.45534,38.331350261028234
167,42.773435,38.15112069142561
168,43.009468,38.15112069142561
169,43.239003,38.15112069142561
170,43.481613,38.331350261028234
171,43.862903,38.331350261028234
172,44.118223,37.9370343250855
173,44.369166,38.331350261028234
174,44.62583,37.9370343250855
175,44.857606,38.64109728690835
176,45.165642,38.15112069142561
177,45.401847,38.331350261028234
178,45.630684,38.64109728690835
179,45.87641,38.331350261028234
180,46.098195,38.15112069142561
181,46.412635,38.0646702840938
182,46.646671,37.9370343250855
183,46.90015,37.9370343250855
184,47.185068,37.9370343250855
185,47.509541,37.9370343250855
186,47.75013,37.759543896919496
187,47.978794,38.15112069142561
188,48.213352,38.24359497251602
189,48.447251,38.331350261028234
190,48.752027,38.51194038570301
191,48.981352,38.24359497251602
192,49.215461,38.0646702840938
193,49.504787,38.0646702840938
194,49.814639,38.331350261028234
195,50.068793,38.64109728690835
196,50.321725,38.331350261028234
197,50.572919,38.64109728690835
198,50.805715,38.64109728690835
199,51.119243,38.24359497251602
200,51.365489,37.759543896919496
201,51.596491,37.9370343250855
202,51.910669,38.331350261028234
203,52.228783,37.9370343250855
204,52.473225,38.45941132266323
205,52.707364,37.9370343250855
206,52.955833,38.331350261028234
207,53.195122,38.331350261028234
208,53.499119,38.64109728690835
209,53.750833,38.15112069142561
210,53.973646,37.9370343250855
211,54.230855,38.24359497251602
212,54.477843,38.15112069142561
213,54.84013,38.331350261028234
214,55.080798,38.331350261028234
215,55.332169,38.331350261028234
216,55.578332,38.331350261028234
217,55.810207,38.331350261028234
218,56.11351,38.331350261028234
219,56.357878,37.9370343250855
220,56.586922,38.15112069142561
221,56.832244,38.64109728690835
222,57.085301,37.9370343250855
223,57.379719,38.15112069142561
224,57.611419,38.0646702840938
225,57.85857,38.331350261028234
226,58.107524,38.331350261028234
227,58.361021,37.9370343250855
228,58.673461,37.9370343250855
229,58.925456,38.64109728690835
230,59.15968,37.9370343250855
231,59.402887,37.759543896919496
232,59.637646,38.331350261028234
233,59.935057,37.759543896919496
234,60.173532,38.331350261028234
235,60.403938,38.24359497251602
236,60.635374,38.331350261028234
237,60.882624,38.331350261028234
238,61.213079,38.0646702840938
239,61.472021,38.331350261028234
240,61.710426,37.9370343250855
241,61.92679,38.24359497251602
242,62.156682,38.24359497251602
243,62.504624,38.24359497251602
