,time (s),surface tension (mN/m)
0,0.109234,30.981342618276823
1,0.290594,30.882551142913844
2,0.495825,31.283882409091976
3,0.714681,30.945644280677058
4,0.918833,30.611093711522308
5,1.14577,31.09651278496476
6,1.341458,31.09651278496476
7,1.530196,31.09651278496476
8,1.718679,30.91002321665303
9,1.900067,30.84724314650527
10,2.115441,30.99790961274475
11,2.402774,30.760058189860494
12,2.646931,30.91002321665303
13,2.890839,30.575344796164362
14,3.135604,30.91002321665303
15,3.38842,30.72441066056981
16,3.635795,30.72441066056981
17,3.844572,30.72441066056981
18,4.017743,30.626989836153236
19,4.21962,30.874479657117206
20,4.434802,30.874479657117206
21,4.69101,30.874479657117206
22,4.916338,30.626989836153236
23,5.10233,31.02556055931074
24,5.291657,30.68884009195858
25,5.480472,30.839013834909718
26,5.676729,30.355804443208257
27,5.882871,30.355804443208257
28,6.121741,30.504075785852827
29,6.363033,30.504075785852827
30,6.644037,30.65334671333893
31,6.876493,30.65334671333893
32,7.156394,30.803625984818368
33,7.414731,30.320183699830647
34,7.614347,30.320183699830647
35,7.819102,30.320183699830647
36,8.001626,30.468556140678754
37,8.218375,30.320183699830647
38,8.444314,30.137160801432728
39,8.69022,30.137160801432728
40,8.880565,30.137160801432728
41,9.066764,30.43311337181207
42,9.288479,30.28463906955165
43,9.500337,30.189161542877212
44,9.669587,30.28463906955165
45,9.881888,30.43311337181207
46,10.152417,30.43311337181207
47,10.476464,30.43311337181207
48,10.718738,30.101592459116578
49,10.964726,30.249170776604675
50,11.224186,30.101592459116578
51,11.433574,30.101592459116578
52,11.646134,30.249170776604675
53,11.848311,30.066099921053148
54,12.058235,29.773710470189723
55,12.266941,30.249170776604675
56,12.47203,30.249170776604675
57,12.702989,29.919413275063572
58,12.888897,30.066099921053148
59,13.085516,30.39774770887163
60,13.263682,30.066099921053148
61,13.477146,30.066099921053148
62,13.755075,29.73809848960827
63,14.003178,29.73809848960827
64,14.234835,30.066099921053148
65,14.471095,29.883897762450047
66,14.670308,30.213779047100658
67,14.914504,30.36245938340346
68,15.128883,30.213779047100658
69,15.334699,29.883897762450047
70,15.525086,30.030683409885327
71,15.733198,30.030683409885327
72,15.988483,30.030683409885327
73,16.212366,30.030683409885327
74,16.403221,29.70256126464012
75,16.589137,30.030683409885327
76,16.779067,29.557645081486317
77,16.976524,29.70256126464012
78,17.201012,30.327248628900822
79,17.424701,29.557645081486317
80,17.659505,29.848457746078118
81,17.898335,29.848457746078118
82,18.131054,29.848457746078118
83,18.403456,29.848457746078118
84,18.648099,29.378050035947986
85,18.846611,29.848457746078118
86,19.058061,29.522087398014836
87,19.240803,29.848457746078118
88,19.483427,29.75490048717253
89,19.713431,29.66709901111053
90,19.948889,29.66709901111053
91,20.137074,30.143226192370303
92,20.325479,29.66709901111053
93,20.59322,29.66709901111053
94,20.785784,29.66709901111053
95,20.974305,29.813093447000128
96,21.165821,29.813093447000128
97,21.378438,29.813093447000128
98,21.674891,29.486604166987526
99,21.914108,29.813093447000128
100,22.149969,29.96007936816406
101,22.394304,29.63171194665358
102,22.601003,29.96007936816406
103,22.851244,29.63171194665358
104,23.041464,29.77780508812551
105,23.227615,29.96007936816406
106,23.434146,29.63171194665358
107,23.641858,29.63171194665358
108,23.890731,29.77780508812551
109,24.080217,29.30697018228192
110,24.267305,29.63171194665358
111,24.456574,29.77780508812551
112,24.64372,29.30697018228192
113,24.829085,29.77780508812551
114,25.091581,29.63171194665358
115,25.334214,29.30697018228192
116,25.567596,29.30697018228192
117,25.825448,29.53910621022357
118,26.06528,29.63171194665358
119,26.315321,29.451195602659553
120,26.523751,29.451195602659553
121,26.73377,29.30697018228192
122,26.919651,29.30697018228192
123,27.114103,29.30697018228192
124,27.363103,29.30697018228192
125,27.586711,29.451195602659553
126,27.780778,29.30697018228192
127,27.97172,29.77780508812551
128,28.158731,29.451195602659553
129,28.346331,29.451195602659553
130,28.564303,29.77780508812551
131,28.758146,29.451195602659553
132,28.987472,29.451195602659553
133,29.209634,29.63171194665358
134,29.445771,29.451195602659553
135,29.722814,29.451195602659553
136,29.968365,29.451195602659553
137,30.201737,29.63171194665358
138,30.420857,29.451195602659553
139,30.637883,29.30697018228192
140,30.885831,29.451195602659553
141,31.099571,29.63171194665358
142,31.311025,29.30697018228192
143,31.532241,29.451195602659553
144,31.722473,29.451195602659553
145,31.951442,29.30697018228192
146,32.159977,29.451195602659553
147,32.348905,29.451195602659553
148,32.52244,28.985811387245214
149,32.746318,29.451195602659553
150,33.022589,29.451195602659553
151,33.254057,28.985811387245214
152,33.489654,29.12819403212889
153,33.729041,29.451195602659553
154,33.968963,29.451195602659553
155,34.226184,29.451195602659553
156,34.439143,29.451195602659553
157,34.610515,28.985811387245214
158,34.814835,29.12819403212889
159,35.027303,29.451195602659553
160,35.278172,28.985811387245214
161,35.469402,29.451195602659553
162,35.667138,29.451195602659553
163,35.861865,29.451195602659553
164,36.050104,29.451195602659553
165,36.243716,29.271541375188715
166,36.459172,29.451195602659553
167,36.685824,29.451195602659553
168,36.954668,29.12819403212889
169,37.195103,29.451195602659553
170,37.425395,29.596400290731125
171,37.690954,29.271541375188715
172,37.914674,29.271541375188715
173,38.122965,29.12819403212889
174,38.327626,29.12819403212889
175,38.516739,29.451195602659553
176,38.762681,29.271541375188715
177,38.970316,29.596400290731125
178,39.197425,29.451195602659553
179,39.385933,29.271541375188715
180,39.574659,29.271541375188715
181,39.760946,28.985811387245214
182,39.984301,29.12819403212889
183,40.164937,29.596400290731125
184,40.387294,29.451195602659553
185,40.629122,29.451195602659553
186,40.903745,29.271541375188715
187,41.226883,29.451195602659553
188,41.474165,29.451195602659553
189,41.682232,29.271541375188715
190,41.881747,29.451195602659553
191,42.098163,29.742592894240154
192,42.329838,29.271541375188715
193,42.53159,29.271541375188715
194,42.780752,29.271541375188715
195,43.00411,29.271541375188715
196,43.19334,29.12819403212889
197,43.427785,29.12819403212889
198,43.651794,29.271541375188715
199,43.83895,29.451195602659553
200,44.051262,28.985811387245214
201,44.277452,29.271541375188715
202,44.586932,29.596400290731125
203,44.840014,29.12819403212889
204,45.090591,29.271541375188715
205,45.31691,29.271541375188715
206,45.513286,29.271541375188715
207,45.754664,29.271541375188715
208,45.947342,29.271541375188715
209,46.151487,29.12819403212889
210,46.369229,29.271541375188715
211,46.578303,29.12819403212889
212,46.830931,29.271541375188715
213,47.026389,29.271541375188715
214,47.218064,29.271541375188715
215,47.403834,29.271541375188715
216,47.592554,29.451195602659553
217,47.765311,29.415861921084872
218,48.030359,29.271541375188715
219,48.296955,29.12819403212889
220,48.557984,29.12819403212889
221,48.79402,29.742592894240154
222,49.070839,29.596400290731125
223,49.295403,29.271541375188715
224,49.505544,29.036900707079027
225,49.706993,29.596400290731125
226,49.90283,29.12819403212889
227,50.158728,29.271541375188715
228,50.378155,29.271541375188715
229,50.602379,29.271541375188715
230,50.802482,29.271541375188715
231,51.00142,29.271541375188715
232,51.274133,29.271541375188715
233,51.463227,29.271541375188715
234,51.686556,29.271541375188715
235,51.940331,29.271541375188715
236,52.17096,29.271541375188715
237,52.459875,29.271541375188715
238,52.688541,29.271541375188715
239,52.899188,29.271541375188715
240,53.105445,29.271541375188715
241,53.307445,29.12819403212889
242,53.539112,29.271541375188715
243,53.733656,29.742592894240154
244,53.943111,29.271541375188715
245,54.156662,29.12819403212889
246,54.379837,29.271541375188715
247,54.610023,28.808757880012827
248,54.805304,29.271541375188715
249,54.993472,29.271541375188715
250,55.180083,29.415861921084872
251,55.359336,29.271541375188715
252,55.58216,29.271541375188715
253,55.835839,29.271541375188715
254,56.078771,29.415861921084872
255,56.321364,28.95027269822033
256,56.565324,28.95027269822033
257,56.80721,29.12819403212889
258,57.087245,29.415861921084872
259,57.305152,29.415861921084872
260,57.491392,28.95027269822033
261,57.686946,28.95027269822033
262,57.901697,29.415861921084872
263,58.19086,29.271541375188715
264,58.387575,29.180064379516526
265,58.576304,28.89470243628418
266,58.757087,29.12819403212889
267,58.957436,28.95027269822033
268,59.147055,29.415861921084872
269,59.370703,29.271541375188715
270,59.592586,29.271541375188715
271,59.831355,29.271541375188715
272,60.060901,29.271541375188715
273,60.293931,28.95027269822033
274,60.57019,28.95027269822033
275,60.789943,28.57782688428105
276,60.986089,29.271541375188715
277,61.184679,29.271541375188715
