,time (s),surface tension (mN/m)
0,0.102722,69.8391563903648
1,0.343833,73.24260838136593
2,0.593673,69.88888815221775
3,0.837525,71.04266176311572
4,1.130783,71.63847193715769
5,1.389279,72.87975832189585
6,1.641517,71.33971140688989
7,1.846367,72.93475426028593
8,2.04004,70.74731033100564
9,2.33007,72.93475426028593
10,2.545288,69.5676518252126
11,2.749627,70.76785229866223
12,2.951757,72.93475426028593
13,3.140364,70.1298123831784
14,3.380583,71.33971140688989
15,3.622034,72.27078072940338
16,3.820157,71.33971140688989
17,4.04357,70.4731838047559
18,4.288948,72.93475426028593
19,4.581588,69.5676518252126
20,4.831316,72.27078072940338
21,5.062768,71.69145816972672
22,5.310993,70.74731033100564
23,5.544738,71.06421796459651
24,5.832862,70.4731838047559
25,6.04284,70.76785229866223
26,6.28609,71.93895614295722
27,6.507863,71.06421796459651
28,6.728725,71.9926343523284
29,6.967171,71.3920126737948
30,7.178087,72.93475426028593
31,7.381414,71.9926343523284
32,7.572623,71.33971140688989
33,7.782247,71.33971140688989
34,8.07209,71.9926343523284
35,8.324076,71.04266176311572
36,8.562186,71.3622934890799
37,8.797977,70.76785229866223
38,9.034006,70.76785229866223
39,9.320885,70.76785229866223
40,9.529968,70.4731838047559
41,9.768604,70.76785229866223
42,9.987694,71.69145816972672
43,10.261083,71.3920126737948
44,10.517432,71.06421796459651
45,10.719191,71.9926343523284
46,10.915473,70.74731033100564
47,11.103795,71.06421796459651
48,11.305756,71.06421796459651
49,11.576554,71.33971140688989
50,11.79823,71.06421796459651
51,12.058528,71.33971140688989
52,12.29004,71.06421796459651
53,12.522394,70.4731838047559
54,12.826872,71.06421796459651
55,13.079777,71.69145816972672
56,13.289586,72.57439064904253
57,13.499662,70.76785229866223
58,13.706045,70.76785229866223
59,13.950871,70.4731838047559
60,14.151433,71.9926343523284
61,14.353658,71.69145816972672
62,14.54865,71.04266176311572
63,14.746879,69.5676518252126
64,14.945997,71.9926343523284
65,15.180977,70.4731838047559
66,15.42162,70.76785229866223
67,15.67193,72.93475426028593
68,15.932735,70.74731033100564
69,16.232873,72.27078072940338
70,16.443724,70.4731838047559
71,16.705034,70.4731838047559
72,16.933917,69.8391563903648
73,17.182194,71.9926343523284
74,17.448085,70.76785229866223
75,17.674494,72.29555419799493
76,17.869709,70.1298123831784
77,18.070145,71.69145816972672
78,18.264833,70.4731838047559
79,18.512061,71.9926343523284
80,18.731149,71.69145816972672
81,18.947726,72.27078072940338
82,19.161574,71.33971140688989
83,19.383987,71.33971140688989
84,19.656933,70.76785229866223
85,19.910618,71.69145816972672
86,20.141335,71.33971140688989
87,20.369327,71.06421796459651
88,20.73082,71.33971140688989
89,20.939135,71.04266176311572
90,21.148983,70.74731033100564
91,21.378658,70.76785229866223
92,21.648119,70.76785229866223
93,21.911365,70.4731838047559
94,22.112081,71.06421796459651
95,22.310107,70.4731838047559
96,22.526073,71.33971140688989
97,22.741548,71.33971140688989
98,22.985843,70.4731838047559
99,23.219486,71.33971140688989
100,23.461481,71.33971140688989
101,23.692746,72.27078072940338
102,23.920591,71.33971140688989
103,24.220702,71.63847193715769
104,24.486546,71.06421796459651
105,24.711288,71.9926343523284
106,24.930002,72.27078072940338
107,25.171775,70.4731838047559
108,25.418442,71.06421796459651
109,25.620929,71.06421796459651
110,25.823795,71.33971140688989
111,26.02642,71.04266176311572
112,26.220459,71.63847193715769
113,26.465175,71.33971140688989
114,26.681577,71.33971140688989
115,26.908476,70.76785229866223
116,27.155373,71.33971140688989
117,27.388638,71.33971140688989
118,27.675386,70.76785229866223
119,27.933048,71.63847193715769
120,28.136898,71.33971140688989
121,28.336051,71.69145816972672
122,28.552916,71.06421796459651
123,28.80744,71.63847193715769
124,29.035167,71.33971140688989
125,29.242234,71.33971140688989
126,29.439382,71.06421796459651
127,29.637251,71.63847193715769
128,29.879413,71.63847193715769
129,30.101254,70.76785229866223
130,30.29719,71.63847193715769
131,30.515461,71.33971140688989
132,30.837154,71.06421796459651
133,31.189612,71.33971140688989
134,31.439061,71.63847193715769
135,31.679324,71.63847193715769
136,31.893376,70.76785229866223
137,32.102832,70.42213380474718
138,32.346637,71.69145816972672
139,32.573688,71.33971140688989
140,32.773378,71.33971140688989
141,32.967239,70.76785229866223
142,33.169619,71.63847193715769
143,33.400109,71.63847193715769
144,33.593254,71.33971140688989
145,33.796094,70.4731838047559
146,33.989822,71.9926343523284
147,34.215365,70.4731838047559
148,34.515502,71.06421796459651
149,34.757183,70.76785229866223
150,34.990327,71.06421796459651
151,35.220704,71.06421796459651
152,35.451016,71.06421796459651
153,35.688534,71.06421796459651
154,35.905526,69.5676518252126
155,36.116152,70.76785229866223
156,36.344333,71.06421796459651
157,36.563763,71.63847193715769
158,36.819377,71.06421796459651
159,37.017274,70.76785229866223
160,37.205919,71.06421796459651
161,37.437502,71.06421796459651
162,37.629318,71.06421796459651
163,37.879894,70.76785229866223
164,38.103325,71.3622934890799
165,38.348489,71.06421796459651
166,38.57894,71.63847193715769
167,38.801161,70.4731838047559
168,39.097816,70.14927254350827
169,39.350509,70.14927254350827
170,39.567234,69.85762999834151
171,39.793788,70.76785229866223
172,40.002621,71.3622934890799
173,40.270933,71.06421796459651
174,40.488731,71.06421796459651
175,40.69477,70.76785229866223
176,40.901037,71.3622934890799
177,41.125029,71.63847193715769
178,41.379431,71.06421796459651
179,41.608529,71.33971140688989
180,41.804786,71.06421796459651
181,42.002026,71.3622934890799
182,42.23521,71.93895614295722
183,42.538532,71.06421796459651
184,42.77666,70.76785229866223
185,42.988777,71.63847193715769
186,43.20483,71.93895614295722
187,43.447029,70.76785229866223
188,43.745016,71.9926343523284
189,43.96424,71.33971140688989
190,44.201978,71.06421796459651
191,44.453617,71.33971140688989
192,44.698152,70.76785229866223
193,44.960274,71.06421796459651
194,45.210288,71.06421796459651
195,45.414335,71.06421796459651
196,45.601943,71.06421796459651
197,45.805253,71.06421796459651
198,46.075692,71.06421796459651
199,46.339146,71.06421796459651
200,46.583033,71.06421796459651
201,46.829215,70.76785229866223
202,47.054967,71.06421796459651
203,47.354128,70.14927254350827
204,47.563648,70.76785229866223
205,47.788048,71.06421796459651
206,47.986116,70.76785229866223
207,48.196668,70.76785229866223
208,48.455297,71.33971140688989
209,48.650675,71.3622934890799
210,48.849843,71.06421796459651
211,49.06374,70.76785229866223
212,49.256868,70.71613304777016
213,49.513523,70.42213380474718
214,49.772889,71.06421796459651
215,50.024907,71.06421796459651
216,50.318361,71.3622934890799
217,50.602066,71.3622934890799
218,50.858527,71.06421796459651
219,51.070089,71.06421796459651
220,51.397065,71.06421796459651
221,51.694953,70.76785229866223
222,51.9012,71.3622934890799
223,52.093359,70.14927254350827
224,52.281262,71.3622934890799
225,52.472425,71.06421796459651
226,52.658402,71.06421796459651
227,52.92212,71.06421796459651
228,53.158136,69.5676518252126
229,53.406664,71.3622934890799
230,53.656591,71.06421796459651
231,53.907828,71.66209167313063
232,54.199117,71.06421796459651
233,54.443726,71.06421796459651
234,54.642734,71.06421796459651
235,54.844458,71.06421796459651
236,55.038194,70.44259186448926
237,55.286396,71.06421796459651
238,55.47866,71.06421796459651
239,55.667164,71.06421796459651
240,55.855683,70.14927254350827
241,56.041728,71.06421796459651
242,56.231014,71.06421796459651
243,56.489718,71.06421796459651
244,56.738309,71.06421796459651
245,56.976769,71.06421796459651
246,57.218762,71.06421796459651
247,57.467147,70.14927254350827
248,57.761057,71.3622934890799
249,57.982961,71.93895614295722
250,58.204645,71.93895614295722
251,58.382997,72.24117692874887
252,58.590362,68.67519223012621
253,58.839359,71.66209167313063
254,59.039602,71.93895614295722
255,59.237191,72.6002308006118
256,59.427225,69.24757004664403
257,59.617548,71.66209167313063
258,59.799719,71.63847193715769
259,60.042533,70.14927254350827
260,60.262321,70.14927254350827
261,60.506323,72.6002308006118
262,60.756736,70.14927254350827
263,60.997861,70.14927254350827
264,61.282491,69.24757004664403
265,61.510113,71.06421796459651
266,61.725692,70.14927254350827
267,61.991784,71.3622934890799
268,62.232215,70.14927254350827
269,62.520349,71.66209167313063
270,62.726464,71.3622934890799
271,62.924831,71.66209167313063
272,63.121952,70.14927254350827
273,63.350234,71.06421796459651
274,63.609141,71.3622934890799
275,63.825701,70.73760047664814
276,64.056261,70.73760047664814
277,64.30871,71.3622934890799
278,64.539092,70.73760047664814
279,64.82146,70.44259186448926
280,65.064871,71.06421796459651
281,65.314042,71.3622934890799
282,65.523361,71.01182261625581
283,65.736682,72.24117692874887
284,66.021498,68.9605650035127
285,66.255504,70.44259186448926
286,66.477345,70.71613304777016
287,66.673425,70.14927254350827
288,66.873299,69.82652556277182
289,67.128394,71.01182261625581
290,67.359115,70.14927254350827
291,67.576997,70.73760047664814
292,67.778768,71.3622934890799
293,67.989086,70.14927254350827
294,68.251602,70.44259186448926
295,68.517296,70.73760047664814
296,68.796413,71.66209167313063
297,69.049089,70.14927254350827
298,69.35457,71.66209167313063
299,69.596816,70.44259186448926
300,69.819598,70.14927254350827
301,70.030392,71.06421796459651
302,70.290871,69.24757004664403
303,70.600011,71.06421796459651
304,70.807214,72.24117692874887
305,71.018861,70.14927254350827
306,71.218826,71.3622934890799
307,71.439136,72.24117692874887
308,71.718232,69.24757004664403
309,71.912543,70.73760047664814
310,72.221557,70.73760047664814
311,72.458539,71.30921512670169
312,72.702669,70.73760047664814
313,72.994245,70.44259186448926
314,73.226333,70.14927254350827
315,73.47188,71.93895614295722
316,73.683322,69.24757004664403
317,73.89647,70.14927254350827
318,74.186779,70.73760047664814
319,74.390886,70.73760047664814
320,74.585778,70.14927254350827
321,74.776207,71.3622934890799
322,74.97502,70.73760047664814
323,75.171102,71.66209167313063
324,75.407336,70.73760047664814
325,75.6166,70.73760047664814
326,75.8188,69.24757004664403
327,76.052571,69.24757004664403
328,76.294408,71.3622934890799
329,76.58575,70.73760047664814
330,76.838985,69.53621948748831
331,77.065661,70.73760047664814
332,77.308915,70.73760047664814
333,77.530861,71.33273620101096
334,77.808576,70.73760047664814
335,78.071587,69.53621948748831
336,78.29915,69.24757004664403
337,78.546881,71.93895614295722
338,78.74359,69.82652556277182
339,78.989467,70.73760047664814
340,79.218176,71.01182261625581
341,79.426929,69.53621948748831
342,79.618138,71.03431100812018
343,79.842199,69.53621948748831
344,80.120751,70.73760047664814
345,80.369663,69.82652556277182
346,80.597299,71.01182261625581
347,80.82636,69.24757004664403
348,81.059446,70.0981260477979
349,81.322436,70.0981260477979
350,81.562591,70.73760047664814
351,81.770521,71.66209167313063
352,81.984179,70.73760047664814
353,82.206829,69.82652556277182
354,82.521043,70.73760047664814
355,82.730393,69.82652556277182
356,82.933461,70.73760047664814
357,83.127647,70.39077802122489
358,83.353031,70.73760047664814
359,83.620379,70.73760047664814
360,83.810886,69.82652556277182
361,84.032257,69.82652556277182
362,84.298311,70.73760047664814
363,84.511243,71.96362543348333
364,84.762471,69.82652556277182
365,85.00156,70.73760047664814
366,85.230716,70.11850061912946
367,85.467124,71.90916000908689
368,85.735611,71.33273620101096
369,86.008206,69.53621948748831
370,86.272891,69.82652556277182
371,86.537327,69.82652556277182
372,86.737189,70.73760047664814
373,86.9355,70.68511246238694
374,87.215727,70.73760047664814
375,87.423109,70.73760047664814
376,87.631386,69.82652556277182
377,87.867475,70.39077802122489
378,88.116335,70.73760047664814
379,88.429684,68.92863977707938
380,88.698289,69.82652556277182
381,88.916983,71.30921512670169
382,89.120854,69.82652556277182
383,89.33559,69.82652556277182
384,89.601413,70.39077802122489
385,89.805072,71.33273620101096
386,90.002373,71.30921512670169
387,90.199616,71.33273620101096
388,90.39182,69.8071440957007
389,90.587387,70.11850061912946
390,90.877017,71.33273620101096
391,91.123124,70.73760047664814
392,91.351279,70.73760047664814
393,91.589633,71.33273620101096
394,91.935324,70.11850061912946
395,92.186598,70.73760047664814
396,92.422239,70.41215711426945
397,92.703608,70.98114192966018
398,92.915228,69.82652556277182
399,93.148588,69.82652556277182
400,93.338486,70.11850061912946
401,93.526016,69.82652556277182
402,93.715526,69.82652556277182
403,93.916831,69.82652556277182
404,94.109395,71.33273620101096
405,94.343927,69.82652556277182
406,94.567832,69.82652556277182
407,94.786824,69.82652556277182
408,95.049383,70.41215711426945
409,95.278542,69.82652556277182
410,95.576753,70.39077802122489
411,95.790185,69.82652556277182
412,95.997225,70.41215711426945
413,96.215083,71.60832330928815
414,96.462102,69.82652556277182
415,96.729318,70.11850061912946
416,96.970407,70.11850061912946
417,97.165438,69.82652556277182
418,97.367514,70.11850061912946
419,97.59623,69.82652556277182
420,97.866297,70.11850061912946
421,98.070789,71.03431100812018
422,98.284465,70.11850061912946
423,98.532832,71.33273620101096
424,98.772777,70.41215711426945
425,99.051304,69.82652556277182
426,99.306699,69.21596532495936
427,99.53865,70.68511246238694
428,99.753964,69.82652556277182
429,99.972155,70.39077802122489
430,100.247975,69.82652556277182
431,100.459127,70.41215711426945
432,100.668666,70.11850061912946
433,100.87886,69.82652556277182
434,101.097841,70.11850061912946
435,101.343445,70.41215711426945
436,101.553396,70.11850061912946
437,101.77376,70.41215711426945
438,102.003644,70.68511246238694
439,102.199461,70.41215711426945
440,102.492031,70.41215711426945
441,102.730817,69.82652556277182
442,103.066632,69.82652556277182
443,103.306659,69.82652556277182
444,103.613542,69.82652556277182
445,103.849592,69.82652556277182
446,104.069373,70.11850061912946
447,104.283526,69.82652556277182
448,104.551496,70.41215711426945
449,104.87514,70.41215711426945
450,105.091776,70.39077802122489
451,105.298625,69.82652556277182
452,105.530897,69.82652556277182
453,105.757661,69.82652556277182
454,105.986448,69.82652556277182
455,106.207872,69.82652556277182
456,106.437552,69.82652556277182
457,106.741365,69.82652556277182
458,107.055747,70.11850061912946
459,107.304751,70.11850061912946
460,107.511889,71.33273620101096
461,107.747139,69.82652556277182
462,107.984501,71.90916000908689
463,108.241619,70.41215711426945
464,108.451187,70.11850061912946
465,108.646925,70.41215711426945
466,108.845592,68.92863977707938
467,109.04312,70.41215711426945
468,109.234054,70.41215711426945
469,109.466965,70.11850061912946
470,109.676396,71.03431100812018
471,109.914668,68.92863977707938
472,110.188886,70.41215711426945
473,110.438649,69.82652556277182
474,110.748991,70.11850061912946
475,111.041835,70.41215711426945
476,111.254678,70.41215711426945
477,111.483126,70.41215711426945
478,111.69581,68.92863977707938
479,111.960718,69.82652556277182
480,112.185347,70.41215711426945
481,112.408603,70.707507618152
482,112.618345,70.41215711426945
483,112.82191,70.41215711426945
484,113.076755,70.68511246238694
485,113.323288,70.11850061912946
486,113.528734,70.98114192966018
487,113.751131,70.41215711426945
488,114.010833,68.92863977707938
489,114.340812,69.82652556277182
490,114.593882,70.41215711426945
491,114.823107,71.33273620101096
492,115.010743,70.11850061912946
493,115.222867,70.41215711426945
494,115.46615,70.41215711426945
495,115.67439,71.90916000908689
496,115.868628,68.92863977707938
497,116.060882,70.41215711426945
498,116.248023,70.41215711426945
499,116.537337,69.82652556277182
500,116.784996,69.50493979764508
501,117.016926,70.11850061912946
502,117.267264,70.41215711426945
503,117.49926,69.82652556277182
504,117.801739,70.68511246238694
505,118.016827,69.21596532495936
506,118.221943,70.06659359381166
507,118.399107,70.41215711426945
508,118.58701,70.68511246238694
509,118.78636,69.21596532495936
510,119.027576,69.50493979764508
511,119.225215,70.11850061912946
512,119.414233,69.50493979764508
513,119.606961,69.50493979764508
514,119.78805,70.41215711426945
515,120.000521,70.41215711426945
516,120.279442,69.21596532495936
517,120.525248,70.41215711426945
518,120.775317,70.41215711426945
519,121.04579,70.06659359381166
520,121.335122,70.41215711426945
521,121.544287,70.41215711426945
522,121.775148,70.98114192966018
523,121.987226,70.11850061912946
524,122.183834,70.11850061912946
525,122.476901,70.11850061912946
526,122.678953,70.41215711426945
527,122.882057,69.50493979764508
528,123.076404,70.41215711426945
529,123.277598,70.41215711426945
530,123.616107,69.50493979764508
531,123.846903,70.98114192966018
532,124.076027,69.21596532495936
533,124.323926,70.11850061912946
534,124.573037,70.41215711426945
535,124.856882,70.41215711426945
536,125.076953,70.98114192966018
537,125.283691,70.98114192966018
538,125.483411,68.92863977707938
539,125.715671,69.21596532495936
540,126.007202,71.90916000908689
541,126.244463,69.50493979764508
542,126.442527,70.98114192966018
543,126.640025,69.50493979764508
544,126.832902,69.50493979764508
545,127.080251,70.707507618152
546,127.31311,70.41215711426945
547,127.502984,70.39077802122489
548,127.705688,70.0878847867946
549,127.925871,71.33273620101096
550,128.240987,69.50493979764508
551,128.499201,69.50493979764508
552,128.722352,70.41215711426945
553,128.971844,69.50493979764508
554,129.19593,69.50493979764508
555,129.464822,69.50493979764508
556,129.693833,69.50493979764508
557,129.924245,70.98114192966018
558,130.126955,70.41215711426945
559,130.321159,69.50493979764508
560,130.567699,70.68511246238694
561,130.769761,69.21596532495936
562,130.96793,70.41215711426945
563,131.197265,69.79557548483649
564,131.403745,69.50493979764508
565,131.642983,69.50493979764508
566,131.872439,70.707507618152
567,132.135116,69.50493979764508
568,132.387311,70.98114192966018
569,132.633685,70.98114192966018
570,132.904524,70.707507618152
571,133.156366,69.79557548483649
572,133.383601,69.50493979764508
573,133.595633,69.50493979764508
574,134.040979,70.0878847867946
575,134.312133,69.79557548483649
576,134.518634,70.06659359381166
577,134.720117,69.50493979764508
578,134.955497,69.50493979764508
579,135.22533,70.98114192966018
580,135.418467,70.35957784266628
581,135.621644,70.65424923039238
582,135.861137,69.50493979764508
583,136.06539,69.50493979764508
584,136.369973,69.50493979764508
585,136.627218,69.79557548483649
586,136.854558,69.50493979764508
587,137.102591,69.50493979764508
588,137.277303,70.06659359381166
589,137.529034,70.707507618152
590,137.740017,68.61085798201408
591,137.925004,70.65424923039238
592,138.113728,69.50493979764508
593,138.315856,69.50493979764508
594,138.507789,70.0878847867946
595,138.739436,69.79557548483649
596,138.960391,69.50493979764508
597,139.181525,70.0878847867946
598,139.434854,70.41215711426945
599,139.685165,70.35957784266628
600,139.992908,70.35957784266628
601,140.23735,70.98114192966018
602,140.444099,70.65424923039238
603,140.655881,70.707507618152
604,140.86286,69.50493979764508
605,141.110914,70.0878847867946
606,141.304375,70.06659359381166
607,141.500073,70.0878847867946
608,141.695945,68.61085798201408
609,141.887544,70.0878847867946
610,142.094066,68.61085798201408
611,142.34265,68.89686446357308
612,142.540906,70.0878847867946
613,142.768786,70.65424923039238
614,143.016087,69.79557548483649
615,143.266099,70.0878847867946
616,143.56493,69.50493979764508
617,143.805799,70.65424923039238
618,144.089559,70.06659359381166
619,144.308504,69.79557548483649
620,144.518875,71.00456481418246
621,144.824819,71.00456481418246
622,145.051054,69.50493979764508
623,145.280813,69.50493979764508
624,145.488861,69.79557548483649
625,145.691858,69.79557548483649
626,145.97275,69.79557548483649
