,time (s),surface tension (mN/m)
0,0.102691,42.88913410778772
1,0.340624,43.09391634310492
2,0.581485,42.745684102662516
3,0.808055,42.54255666650628
4,1.12829,42.88913410778772
5,1.379854,42.745684102662516
6,1.613532,42.88913410778772
7,1.86375,42.34074640432163
8,2.112544,42.54255666650628
9,2.443647,43.5411004137068
10,2.692048,42.54255666650628
11,2.928595,42.745684102662516
12,3.172144,42.449036489670114
13,3.404447,42.745684102662516
14,3.722338,42.54255666650628
15,3.985458,42.10601537820447
16,4.224089,42.24801001408171
17,4.464959,42.745684102662516
18,4.694188,42.54255666650628
19,4.999861,42.65137226238533
20,5.241787,42.449036489670114
21,5.4926,42.30671612107247
22,5.719489,42.24801001408171
23,5.949312,42.24801001408171
24,6.266472,42.745684102662516
25,6.533385,42.24801001408171
26,6.768803,42.88913410778772
27,7.017156,42.54255666650628
28,7.338425,42.88913410778772
29,7.582205,42.65137226238533
30,7.849926,42.88913410778772
31,8.102144,42.449036489670114
32,8.411606,42.88913410778772
33,8.662125,42.88913410778772
34,8.892341,43.333840422647334
35,9.141222,41.906613352327824
36,9.383422,42.449036489670114
37,9.715151,42.685679776939295
38,9.976336,42.65137226238533
39,10.320656,42.88913410778772
40,10.648673,42.65137226238533
41,10.959932,43.09391634310492
42,11.211716,42.65137226238533
43,11.481285,43.09391634310492
44,11.732842,42.65137226238533
45,12.068198,42.685679776939295
46,12.309525,42.983669409708824
47,12.544838,43.09391634310492
48,12.786781,42.21341628009838
49,13.029348,42.013496092256766
50,13.342766,42.34074640432163
51,13.576592,42.88913410778772
52,13.802954,42.88913410778772
53,14.097585,42.24801001408171
54,14.32785,42.449036489670114
55,14.625476,42.449036489670114
56,14.932919,42.65137226238533
57,15.178305,42.65137226238533
58,15.419976,42.65137226238533
59,15.733769,42.685679776939295
60,15.984736,43.30003781637599
61,16.22403,42.21341628009838
62,16.454906,42.449036489670114
63,16.686394,42.24801001408171
64,17.004554,42.88913410778772
65,17.244107,42.24801001408171
66,17.476098,42.65137226238533
67,17.704896,42.88913410778772
68,17.943636,42.24801001408171
69,18.270803,42.449036489670114
70,18.523131,42.24801001408171
71,18.753252,42.24801001408171
72,19.000524,42.65137226238533
73,19.236677,43.09391634310492
74,19.539906,42.449036489670114
75,19.785308,43.09391634310492
76,20.020665,42.449036489670114
77,20.322064,42.10601537820447
78,20.645698,42.65137226238533
79,20.967489,43.09391634310492
80,21.214909,42.013496092256766
81,21.470318,42.24801001408171
82,21.798177,42.449036489670114
83,22.050425,42.65137226238533
84,22.295317,42.88913410778772
85,22.555234,42.013496092256766
86,22.790898,42.10601537820447
87,23.106706,43.09391634310492
88,23.344963,42.449036489670114
89,23.594815,42.24801001408171
90,23.829043,42.65137226238533
91,24.072532,42.10601537820447
92,24.372984,41.906613352327824
93,24.624779,42.65137226238533
94,24.874388,42.449036489670114
95,25.119042,42.24801001408171
96,25.372348,42.30671612107247
97,25.685544,42.65137226238533
98,25.920462,42.65137226238533
99,26.144364,42.65137226238533
100,26.370381,42.65137226238533
101,26.602163,41.476970333565355
102,26.910892,41.81486686298645
103,27.146259,41.906613352327824
104,27.387527,42.449036489670114
105,27.617057,42.10601537820447
106,27.859859,41.67399448473194
107,28.151317,42.65137226238533
108,28.440809,42.65137226238533
109,28.677356,42.30671612107247
110,28.905914,42.10601537820447
111,29.128702,42.10601537820447
112,29.431581,42.10601537820447
113,29.678335,42.30671612107247
114,29.9013,42.65137226238533
115,30.133833,41.67399448473194
116,30.361614,41.906613352327824
117,30.681,41.67399448473194
118,30.943449,41.906613352327824
119,31.217998,41.476970333565355
120,31.537692,42.30671612107247
121,31.850185,42.013496092256766
122,32.107694,42.449036489670114
123,32.367434,42.50872664694994
124,32.615708,41.476970333565355
125,32.941049,43.09391634310492
126,33.179297,42.013496092256766
127,33.42145,42.30671612107247
128,33.720573,41.67399448473194
129,34.021352,41.476970333565355
130,34.256933,42.30671612107247
131,34.493325,41.67399448473194
132,34.721862,42.65137226238533
133,34.95665,42.10601537820447
134,35.27044,41.87229916252412
135,35.52565,42.10601537820447
136,35.7724,42.745684102662516
137,36.001927,41.906613352327824
138,36.236116,42.10601537820447
139,36.553439,41.81486686298645
140,36.790895,42.65137226238533
141,37.023707,42.10601537820447
142,37.273304,42.013496092256766
143,37.501171,42.65137226238533
144,37.828642,42.24801001408171
145,38.076305,41.24644354233042
146,38.34269,41.476970333565355
147,38.598955,42.0718952599566
148,38.90236,42.013496092256766
149,39.173049,41.67399448473194
150,39.423635,42.30671612107247
151,39.673574,41.476970333565355
152,39.991271,41.87229916252412
153,40.2189,42.21341628009838
154,40.462132,42.449036489670114
155,40.703166,42.449036489670114
156,40.950402,41.67399448473194
157,41.286414,41.81486686298645
158,41.647439,42.013496092256766
159,41.909701,42.013496092256766
160,42.1307,41.476970333565355
161,42.451779,41.67399448473194
162,42.698502,42.449036489670114
163,42.9521,41.67399448473194
164,43.182601,42.10601537820447
165,43.42726,41.87229916252412
166,43.747222,42.013496092256766
167,44.026943,42.013496092256766
168,44.283749,42.30671612107247
169,44.520602,41.476970333565355
170,44.821461,41.476970333565355
171,45.10341,41.476970333565355
172,45.334042,42.30671612107247
173,45.57204,42.65137226238533
174,45.813306,41.051767306329566
175,46.120462,42.013496092256766
176,46.355958,42.10601537820447
177,46.603763,42.449036489670114
178,46.843047,42.013496092256766
179,47.089442,41.58246206084403
180,47.414085,42.013496092256766
181,47.651729,41.81486686298645
182,47.906331,42.013496092256766
183,48.146258,42.65137226238533
184,48.384651,42.21341628009838
185,48.69087,41.81486686298645
186,48.948099,42.65137226238533
187,49.180912,41.476970333565355
188,49.406213,42.449036489670114
189,49.635352,41.67399448473194
190,49.936588,42.013496092256766
191,50.201004,42.013496092256766
192,50.453602,42.013496092256766
193,50.687391,42.013496092256766
194,50.929919,42.013496092256766
195,51.265607,42.013496092256766
196,51.511459,42.21341628009838
197,51.767297,42.65137226238533
198,52.154567,41.67399448473194
199,52.524839,42.013496092256766
200,52.836711,41.81486686298645
201,53.073419,42.013496092256766
202,53.306246,42.013496092256766
203,53.6456,42.65137226238533
204,53.874295,42.013496092256766
205,54.106216,42.013496092256766
206,54.359494,42.41463840826709
207,54.732097,42.21341628009838
208,54.986474,41.051767306329566
209,55.2385,42.41463840826709
210,55.492041,42.21341628009838
211,55.815564,42.21341628009838
212,56.066401,42.013496092256766
213,56.319189,42.013496092256766
214,56.568987,42.013496092256766
215,56.799914,42.013496092256766
216,57.136546,42.013496092256766
217,57.381474,41.386199874278894
218,57.61967,41.58246206084403
219,57.844787,41.386199874278894
220,58.081143,41.58246206084403
221,58.432524,41.77999713209066
222,58.669119,42.0718952599566
223,58.928562,41.81486686298645
224,59.179078,42.013496092256766
225,59.430954,41.386199874278894
226,59.726713,42.21341628009838
227,59.994305,41.81486686298645
228,60.234917,42.21341628009838
229,60.474105,42.013496092256766
230,60.813908,42.013496092256766
231,61.049555,41.386199874278894
232,61.351568,42.21341628009838
233,61.663528,42.013496092256766
234,61.966523,42.013496092256766
235,62.227617,42.21341628009838
236,62.599234,41.58246206084403
237,62.90284,42.013496092256766
238,63.230504,42.013496092256766
239,63.489642,42.21341628009838
240,63.750843,41.386199874278894
241,64.049789,42.013496092256766
242,64.367785,42.449036489670114
243,64.611069,42.21341628009838
244,64.863688,41.67399448473194
245,65.094454,41.81486686298645
246,65.326731,41.24644354233042
247,65.645717,41.67399448473194
248,65.907586,41.386199874278894
249,66.157265,41.81486686298645
250,66.396292,41.67399448473194
251,66.748724,41.67399448473194
252,66.993633,41.81486686298645
253,67.218935,41.87229916252412
254,67.453544,41.77999713209066
255,67.70716,42.21341628009838
256,68.01346,42.65137226238533
257,68.267863,41.386199874278894
258,68.502721,42.013496092256766
259,68.742843,42.21341628009838
260,68.994025,41.67399448473194
261,69.309275,41.24644354233042
262,69.535586,42.855028488395945
263,69.787191,41.77999713209066
264,70.016319,41.87229916252412
265,70.259369,42.41463840826709
266,70.620208,41.67399448473194
267,70.879352,41.87229916252412
268,71.147502,42.21341628009838
269,71.397242,41.58246206084403
270,71.721624,41.442382377118086
271,71.982137,41.58246206084403
272,72.226375,41.58246206084403
273,72.464768,42.21341628009838
274,72.713476,41.58246206084403
275,73.14817,41.58246206084403
276,73.405868,41.77999713209066
277,73.658503,41.58246206084403
278,73.894287,41.442382377118086
279,74.269256,42.21341628009838
280,74.530601,41.442382377118086
281,74.748739,41.58246206084403
282,74.994252,42.21341628009838
283,75.240935,41.442382377118086
284,75.565476,41.77999713209066
285,75.830832,41.58246206084403
286,76.098251,41.442382377118086
287,76.344441,41.77999713209066
288,76.669838,41.24644354233042
289,76.907667,41.58246206084403
290,77.143383,41.87229916252412
291,77.393417,42.0718952599566
292,77.647377,41.63959453353415
293,77.934737,41.77999713209066
294,78.203375,42.013496092256766
295,78.434086,42.21341628009838
296,78.66287,42.21341628009838
297,78.904882,41.58246206084403
298,79.220835,41.87229916252412
299,79.454404,41.67399448473194
300,79.701952,41.442382377118086
301,79.942241,41.58246206084403
302,80.190384,41.77999713209066
303,80.498322,41.77999713209066
304,80.734786,41.442382377118086
305,80.979232,41.77999713209066
306,81.23325,41.77999713209066
307,81.487487,42.21341628009838
308,81.775361,41.87229916252412
309,82.025634,41.155884153755146
310,82.279947,41.442382377118086
311,82.524255,41.24644354233042
312,82.884562,41.67399448473194
313,83.118929,41.24644354233042
314,83.449432,41.77999713209066
315,83.751488,41.54750990529925
316,84.083887,42.21341628009838
317,84.324242,41.442382377118086
318,84.572601,41.442382377118086
319,84.80739,41.442382377118086
320,85.034306,41.442382377118086
321,85.355002,41.67399448473194
322,85.609125,41.97881589821512
323,85.910406,41.442382377118086
324,86.149416,41.442382377118086
325,86.45409,41.442382377118086
326,86.726976,41.63959453353415
327,86.963626,41.442382377118086
328,87.205496,41.77999713209066
329,87.52643,41.442382377118086
330,87.847468,41.97881589821512
331,88.088251,41.77999713209066
332,88.334144,41.97881589821512
333,88.660321,41.442382377118086
334,88.915839,41.77999713209066
335,89.145749,42.21341628009838
336,89.384411,41.87229916252412
337,89.623979,41.77999713209066
338,89.931402,41.442382377118086
339,90.193755,41.442382377118086
340,90.420991,41.77999713209066
341,90.659682,41.24644354233042
342,90.897522,41.58246206084403
343,91.188747,41.442382377118086
344,91.431818,41.77999713209066
345,91.67409,41.442382377118086
346,91.906486,41.01691552884975
347,92.140815,41.77999713209066
348,92.452635,41.58246206084403
349,92.719437,41.442382377118086
350,92.969055,41.442382377118086
351,93.218035,41.58246206084403
352,93.530499,41.155884153755146
353,93.899923,41.97881589821512
354,94.204001,41.01691552884975
355,94.454232,41.442382377118086
356,94.775139,41.24644354233042
357,95.039624,41.442382377118086
358,95.27063,41.77999713209066
359,95.502473,41.442382377118086
360,95.749549,41.63959453353415
361,96.05384,41.24644354233042
362,96.308008,41.01691552884975
363,96.536235,41.442382377118086
364,96.773783,41.442382377118086
365,97.007091,41.24644354233042
366,97.351297,41.97881589821512
367,97.603859,41.442382377118086
368,97.856022,41.155884153755146
369,98.104352,41.442382377118086
370,98.438744,41.97881589821512
371,98.676586,41.442382377118086
372,98.921537,41.442382377118086
373,99.155825,41.77999713209066
374,99.400614,41.97881589821512
375,99.702025,41.35106417310454
376,99.940179,41.63959453353415
377,100.16861,41.77999713209066
378,100.420829,41.155884153755146
379,100.657456,41.77999713209066
380,100.949922,41.77999713209066
381,101.205416,41.442382377118086
382,101.432052,41.63959453353415
383,101.657549,41.97881589821512
384,101.895516,41.77999713209066
385,102.211388,41.77999713209066
386,102.482029,41.21177382728924
387,102.744169,41.97881589821512
388,102.991538,41.155884153755146
389,103.304179,41.77999713209066
390,103.559673,41.21177382728924
391,103.806703,41.77999713209066
392,104.185213,41.54750990529925
393,104.611772,41.74523210036562
394,104.869316,41.77999713209066
395,105.112495,41.77999713209066
396,105.347986,41.54750990529925
397,105.576664,41.35106417310454
398,105.884504,41.63959453353415
399,106.131975,41.54750990529925
400,106.36773,41.01691552884975
401,106.610765,41.77999713209066
402,106.868948,41.97881589821512
403,107.19903,41.77999713209066
404,107.458699,41.54750990529925
405,107.711672,41.97881589821512
406,107.944194,41.97881589821512
407,108.177755,41.155884153755146
408,108.492545,41.97881589821512
409,108.735791,41.77999713209066
410,108.975468,41.97881589821512
411,109.210726,41.58246206084403
412,109.466003,41.97881589821512
413,109.756149,41.01691552884975
414,110.010462,41.01691552884975
415,110.245013,41.97881589821512
416,110.492635,41.54750990529925
417,110.741469,41.54750990529925
418,111.060235,41.97881589821512
419,111.302524,41.35106417310454
420,111.555768,41.97881589821512
421,111.794233,41.97881589821512
422,112.05487,41.74523210036562
423,112.365075,41.155884153755146
424,112.628235,41.35106417310454
425,112.888729,41.77999713209066
426,113.126598,41.35106417310454
427,113.450335,40.926567368502795
428,113.710256,42.17892927992181
429,113.935493,41.77999713209066
430,114.182197,41.155884153755146
431,114.422523,41.54750990529925
432,114.749464,41.54750990529925
433,115.071791,41.54750990529925
434,115.299616,41.77999713209066
435,115.527323,41.54750990529925
436,115.823905,41.63959453353415
437,116.085442,41.35106417310454
438,116.311723,41.35106417310454
439,116.55255,41.35106417310454
440,116.80344,41.77999713209066
441,117.104924,41.35106417310454
442,117.345499,41.01691552884975
443,117.574251,41.35106417310454
444,117.798427,41.97881589821512
445,118.053673,40.926567368502795
446,118.337036,41.01691552884975
447,118.58672,41.97881589821512
448,118.824909,41.35106417310454
449,119.075272,41.35106417310454
450,119.298364,41.54750990529925
451,119.60104,41.54750990529925
452,119.864529,41.21177382728924
453,120.095729,41.54750990529925
454,120.327135,41.54750990529925
455,120.565973,41.35106417310454
456,120.86644,41.155884153755146
457,121.117079,41.54750990529925
458,121.354497,40.926567368502795
459,121.589587,40.926567368502795
460,121.839887,41.35106417310454
461,122.157291,41.35106417310454
462,122.458129,41.35106417310454
463,122.688794,41.35106417310454
464,122.933947,41.21177382728924
465,123.248045,42.17892927992181
466,123.521197,41.54750990529925
467,123.771459,41.54750990529925
468,124.008628,41.155884153755146
469,124.335892,41.54750990529925
470,124.577254,40.926567368502795
471,124.836389,41.35106417310454
472,125.074361,41.54750990529925
473,125.536436,41.54750990529925
474,125.78767,40.926567368502795
475,126.023156,40.926567368502795
476,126.25858,41.21177382728924
477,126.51046,41.54750990529925
478,126.832588,40.926567368502795
479,127.089788,41.54750990529925
480,127.343285,41.54750990529925
481,127.602346,41.35106417310454
482,127.924412,41.54750990529925
483,128.175965,41.35106417310454
484,128.432344,41.35106417310454
485,128.677275,41.54750990529925
486,128.921824,41.316031189917894
487,129.218467,41.54750990529925
488,129.49494,41.94424161822287
489,129.751256,41.74523210036562
490,130.015606,40.926567368502795
491,130.32461,41.12066999304365
492,130.565586,41.94424161822287
493,130.827929,41.54750990529925
494,131.06413,41.74523210036562
495,131.307103,41.316031189917894
496,131.635398,41.21177382728924
497,131.8721,41.54750990529925
498,132.126994,41.54750990529925
499,132.382432,41.54750990529925
500,132.626314,41.54750990529925
501,132.961851,41.74523210036562
502,133.256452,41.54750990529925
503,133.482456,41.74523210036562
504,133.719312,41.12066999304365
505,134.048148,41.54750990529925
506,134.284135,41.54750990529925
507,134.525023,41.35106417310454
508,134.775487,41.35106417310454
509,135.024683,41.35106417310454
510,135.343222,41.54750990529925
511,135.715987,41.407898273791176
512,136.041627,41.316031189917894
513,136.286782,41.74523210036562
514,136.611619,41.35106417310454
515,136.849272,41.74523210036562
516,137.093718,41.35106417310454
517,137.408966,41.74523210036562
518,137.743931,41.74523210036562
519,137.996373,41.12066999304365
520,138.281236,41.407898273791176
521,138.578006,41.74523210036562
522,138.896046,41.54750990529925
523,139.168348,41.74523210036562
524,139.416344,41.316031189917894
525,139.664733,41.21177382728924
526,139.891177,41.54750990529925
527,140.228479,41.74523210036562
528,140.483686,41.54750990529925
529,140.727412,41.54750990529925
530,141.037527,41.12066999304365
531,141.328757,41.12066999304365
532,141.561496,41.74523210036562
533,141.804418,41.74523210036562
534,142.044104,41.12066999304365
535,142.286582,40.926567368502795
536,142.592604,41.12066999304365
537,142.823693,41.12066999304365
538,143.045379,40.926567368502795
539,143.275265,40.926567368502795
540,143.507724,41.316031189917894
541,143.822531,41.316031189917894
542,144.055294,41.12066999304365
543,144.297924,40.926567368502795
544,144.53247,40.78838311231178
545,144.762797,41.316031189917894
546,145.085087,40.926567368502795
547,145.389912,40.926567368502795
548,145.635733,41.316031189917894
549,145.890968,41.12066999304365
550,146.253579,41.12066999304365
551,146.514105,41.74523210036562
552,146.766071,41.54750990529925
553,146.995836,41.74523210036562
554,147.32822,41.94424161822287
555,147.56763,41.94424161822287
556,147.798361,41.94424161822287
557,148.041472,41.54750990529925
558,148.287234,40.698246333193545
559,148.593075,41.12066999304365
560,148.834261,41.12066999304365
561,149.087786,41.74523210036562
562,149.332638,41.35106417310454
563,149.578919,41.94424161822287
564,149.90201,41.316031189917894
565,150.156813,41.74523210036562
566,150.412162,41.316031189917894
567,150.66914,41.35106417310454
568,150.993362,41.12066999304365
569,151.241158,41.17720717214973
570,151.482964,41.51266164924455
571,151.722243,41.12066999304365
572,151.969203,41.54750990529925
573,152.295481,40.89127632022178
574,152.534402,41.316031189917894
575,152.755874,40.78838311231178
576,152.986771,41.316031189917894
577,153.235782,40.926567368502795
578,153.53567,41.316031189917894
579,153.798748,40.78838311231178
580,154.050361,41.54750990529925
581,154.284623,41.12066999304365
582,154.608585,41.316031189917894
583,154.845342,41.51266164924455
584,155.097228,41.21177382728924
585,155.328116,40.78838311231178
586,155.574551,40.98216563931667
587,155.921658,41.54750990529925
588,156.163652,40.98216563931667
589,156.381394,41.316031189917894
590,156.682542,40.78838311231178
591,157.041232,41.316031189917894
592,157.309739,41.74523210036562
593,157.528519,41.94424161822287
594,157.764987,41.94424161822287
595,157.992854,41.316031189917894
596,158.289031,41.407898273791176
597,158.545096,41.51266164924455
598,158.774992,40.98216563931667
599,158.998809,40.698246333193545
600,159.255918,40.78838311231178
601,159.567595,41.316031189917894
602,159.813516,41.316031189917894
603,160.063869,41.316031189917894
604,160.296399,40.89127632022178
605,160.544626,40.98216563931667
606,160.863681,41.316031189917894
607,161.130837,40.98216563931667
608,161.378492,41.12066999304365
609,161.634064,41.316031189917894
610,161.862784,41.12066999304365
611,162.156775,40.98216563931667
612,162.41454,41.316031189917894
613,162.673383,41.17720717214973
614,162.925953,41.316031189917894
615,163.27942,41.17720717214973
616,163.521653,41.407898273791176
