,time (s),surface tension (mN/m)
0,0.003926,41.21127364670718
1,0.2621,40.70270196547677
2,0.509514,39.13447667990309
3,0.74625,39.55355119424575
4,0.986385,40.90399329146098
5,1.30861,39.748109708167284
6,1.63221,39.13447667990309
7,1.879852,39.13447667990309
8,2.133127,38.8465280978961
9,2.469766,40.70270196547677
10,2.704797,38.34406192735777
11,2.939651,40.90399329146098
12,3.172245,38.53134458781503
13,3.434503,39.26215136204358
14,3.745485,38.12348698429415
15,4.006521,39.13447667990309
16,4.248119,38.81823978037693
17,4.483564,39.32663753693651
18,4.724923,39.748109708167284
19,5.044563,39.64832648371928
20,5.293544,38.943595669024155
21,5.542189,39.748109708167284
22,5.794451,39.42691417822701
23,6.040867,39.13447667990309
24,6.358301,39.13447667990309
25,6.606792,39.55355119424575
26,6.840079,38.8465280978961
27,7.087466,39.13447667990309
28,7.334449,39.55355119424575
29,7.658896,39.94397826559667
30,7.899616,39.748109708167284
31,8.155408,38.71987765737605
32,8.401049,39.55355119424575
33,8.633574,38.34406192735777
34,8.939685,37.93850370288339
35,9.217644,38.8465280978961
36,9.458436,39.94397826559667
37,9.70329,39.64832648371928
38,10.022357,39.45459376528139
39,10.336726,38.53134458781503
40,10.614444,39.87709627773387
41,10.85567,38.53134458781503
42,11.144398,39.32663753693651
43,11.389404,38.71987765737605
44,11.62588,39.45459376528139
45,11.846358,38.53134458781503
46,12.075424,38.71987765737605
47,12.389991,38.30970262824362
48,12.6169,39.52008947563942
49,12.850682,38.43533424975501
50,13.09912,38.71987765737605
51,13.329924,38.53134458781503
52,13.648677,38.43533424975501
53,13.903998,39.13447667990309
54,14.139835,38.657713479316655
55,14.389675,37.84431064365012
56,14.620976,38.8465280978961
57,14.919641,39.26215136204358
58,15.174241,38.71987765737605
59,15.415218,38.71987765737605
60,15.669979,39.03660335383205
61,15.901103,38.71987765737605
62,16.201682,39.13447667990309
63,16.427263,37.93850370288339
64,16.673315,38.43533424975501
65,16.926607,39.03660335383205
66,17.162458,38.12348698429415
67,17.469196,38.71987765737605
68,17.723532,39.03660335383205
69,17.969114,38.43533424975501
70,18.222622,39.32663753693651
71,18.552359,38.43533424975501
72,18.802606,39.32663753693651
73,19.046861,38.71987765737605
74,19.282489,38.12348698429415
75,19.529528,38.12348698429415
76,19.833274,38.90967207521547
77,20.070751,38.71987765737605
78,20.303541,38.12348698429415
79,20.540445,38.71987765737605
80,20.942834,38.71987765737605
81,21.183376,39.10073889568376
82,21.434634,38.30970262824362
83,21.671063,38.30970262824362
84,21.891899,38.62307312371162
85,22.196548,38.12348698429415
86,22.422612,38.43533424975501
87,22.662667,38.12348698429415
88,22.88473,38.43533424975501
89,23.12827,38.12348698429415
90,23.421513,38.62307312371162
91,23.669897,39.03660335383205
92,23.89693,38.12348698429415
93,24.147729,38.62307312371162
94,24.37518,38.62307312371162
95,24.680465,38.30970262824362
96,24.984699,38.62307312371162
97,25.220799,38.43533424975501
98,25.452646,38.12348698429415
99,25.772248,38.30970262824362
100,26.027656,38.12348698429415
101,26.257455,38.71987765737605
102,26.4862,38.71987765737605
103,26.718033,38.12348698429415
104,27.033795,38.71987765737605
105,27.34312,38.30970262824362
106,27.596605,38.71987765737605
107,27.845429,38.90967207521547
108,28.171404,38.71987765737605
109,28.407458,38.30970262824362
110,28.648588,38.62307312371162
111,28.888812,37.719972415791574
112,29.128997,38.71987765737605
113,29.434787,38.71987765737605
114,29.662368,38.02851896233307
115,29.913728,38.62307312371162
116,30.147233,38.71987765737605
117,30.399126,38.90967207521547
118,30.721288,38.53134458781503
119,30.983633,38.62307312371162
120,31.311864,38.49716139786261
121,31.551124,38.30970262824362
122,31.866835,38.49716139786261
123,32.165995,37.32075106439078
124,32.403531,38.71987765737605
125,32.62542,37.719972415791574
126,32.938325,38.49716139786261
127,33.190065,38.21395180015582
128,33.419167,37.90390073376221
129,33.633314,38.12348698429415
130,33.879883,38.90967207521547
131,34.195958,38.81206529201255
132,34.44038,38.12348698429415
133,34.670638,38.49716139786261
134,34.920314,37.80918874444178
135,35.150481,38.30970262824362
136,35.463801,38.30970262824362
137,35.712517,38.12348698429415
138,35.937022,38.62307312371162
139,36.185286,38.49716139786261
140,36.446368,37.90390073376221
141,36.766129,37.90390073376221
142,36.989998,38.62307312371162
143,37.227067,38.21395180015582
144,37.460906,38.30970262824362
145,37.704607,37.719972415791574
146,38.019928,38.62307312371162
147,38.24969,37.14027745178473
148,38.481818,38.49716139786261
149,38.704949,38.62307312371162
150,38.945825,37.90390073376221
151,39.258525,37.90390073376221
152,39.502204,37.90390073376221
153,39.751083,38.49716139786261
154,39.986982,37.90390073376221
155,40.225049,38.21395180015582
156,40.526509,38.21395180015582
157,40.771676,37.90390073376221
158,41.004264,37.719972415791574
159,41.22656,38.49716139786261
160,41.619572,38.30970262824362
161,41.880948,38.49716139786261
162,42.110303,38.40061983379333
163,42.332557,38.40061983379333
164,42.560719,37.32075106439078
165,42.855755,38.30970262824362
166,43.099062,38.21395180015582
167,43.34502,37.5024217460691
168,43.592147,37.90390073376221
169,43.831203,38.30970262824362
170,44.155808,37.80918874444178
171,44.406885,37.5024217460691
172,44.635212,38.30970262824362
173,44.868509,37.90390073376221
174,45.228328,37.90390073376221
175,45.481953,37.5024217460691
176,45.744935,38.21395180015582
177,45.986811,37.5024217460691
178,46.218379,37.90390073376221
179,46.532594,38.08905422571626
180,46.787704,38.49716139786261
181,47.016772,37.90390073376221
182,47.250261,37.90390073376221
183,47.500678,38.08905422571626
184,47.815911,37.32075106439078
185,48.06941,38.2754435927871
186,48.309121,38.08905422571626
187,48.556023,37.90390073376221
188,48.788847,37.90390073376221
189,49.099768,37.685299916696685
190,49.379091,37.99356284479494
191,49.609449,38.2754435927871
192,49.873912,38.02851896233307
193,50.193615,37.685299916696685
194,50.439482,37.90390073376221
195,50.669627,37.5024217460691
196,50.917623,38.08905422571626
197,51.170115,37.90390073376221
198,51.49563,37.5024217460691
199,51.752215,37.99356284479494
200,52.01357,37.5024217460691
201,52.290022,37.5024217460691
202,52.590311,37.90390073376221
203,52.862738,38.2754435927871
204,53.092754,37.685299916696685
205,53.344498,37.62603201020695
206,53.589619,37.5024217460691
207,53.911902,38.2754435927871
208,54.182503,37.80918874444178
209,54.425184,37.5024217460691
210,54.674605,37.62603201020695
211,55.0,37.90390073376221
212,55.263129,38.2754435927871
213,55.514183,37.90390073376221
214,55.768971,38.08905422571626
215,56.076582,37.685299916696685
216,56.326928,38.2754435927871
217,56.582703,37.80918874444178
218,56.828589,37.80918874444178
219,57.141337,37.685299916696685
220,57.389179,37.99356284479494
221,57.641717,37.5024217460691
222,57.87212,38.2754435927871
223,58.127667,37.90390073376221
224,58.441421,37.685299916696685
225,58.734371,37.685299916696685
226,58.97773,37.86939610524609
227,59.270277,36.92577372836479
228,59.581926,38.08905422571626
229,59.834981,36.711538465182464
230,60.075325,38.08905422571626
231,60.319705,37.5024217460691
232,60.542155,37.685299916696685
233,60.852185,37.99356284479494
234,61.121224,36.92577372836479
235,61.360389,37.685299916696685
236,61.609865,37.40873394515511
237,61.934085,37.59084390214892
238,62.176483,37.685299916696685
239,62.466383,37.685299916696685
240,62.743164,37.99356284479494
241,63.070355,37.685299916696685
242,63.301948,37.99356284479494
243,63.55599,37.685299916696685
244,63.801384,37.1052160595204
245,64.04224,37.685299916696685
246,64.35264,37.40873394515511
247,64.596796,37.685299916696685
248,64.856881,37.685299916696685
249,65.081824,37.40873394515511
250,65.329258,37.285848457044246
251,65.638186,37.285848457044246
252,65.896432,37.40873394515511
253,66.145404,37.285848457044246
254,66.381322,37.1052160595204
255,66.621266,37.77416410461296
256,66.938185,37.46768128064303
257,67.19122,37.685299916696685
258,67.432166,37.685299916696685
259,67.689216,37.46768128064303
260,67.936676,37.86939610524609
261,68.272513,37.86939610524609
262,68.523163,37.285848457044246
263,68.770309,37.685299916696685
264,69.024596,37.1052160595204
265,69.347117,37.285848457044246
266,69.611512,37.285848457044246
267,69.861475,37.285848457044246
268,70.100046,37.685299916696685
269,70.437811,37.86939610524609
270,70.694012,37.285848457044246
271,70.945268,37.07024931861864
272,71.197679,37.285848457044246
273,71.520763,37.285848457044246
274,71.758849,36.711538465182464
275,72.000563,37.285848457044246
276,72.262173,37.86939610524609
277,72.511246,37.46768128064303
278,72.864226,37.46768128064303
279,73.183092,37.46768128064303
280,73.41683,37.59084390214892
281,73.662118,37.285848457044246
282,73.988527,37.46768128064303
283,74.235925,37.1052160595204
284,74.507984,36.89065045269124
285,74.772327,37.285848457044246
286,75.09806,37.285848457044246
287,75.336549,37.46768128064303
288,75.55992,37.46768128064303
289,75.805793,37.285848457044246
290,76.037475,37.285848457044246
291,76.352773,37.46768128064303
292,76.58965,37.46768128064303
293,76.839225,37.685299916696685
294,77.085884,37.285848457044246
295,77.411496,37.285848457044246
296,77.652982,37.59084390214892
297,77.896985,37.01183609760903
298,78.128044,37.285848457044246
299,78.377191,37.285848457044246
300,78.679087,37.285848457044246
301,78.947381,37.285848457044246
302,79.19717,37.285848457044246
303,79.448268,37.285848457044246
304,79.675121,37.285848457044246
305,79.98,37.285848457044246
306,80.216711,37.59084390214892
307,80.442884,37.285848457044246
308,80.680171,36.89065045269124
309,80.920414,37.285848457044246
310,81.262488,37.285848457044246
311,81.512363,37.285848457044246
312,81.761174,37.285848457044246
313,82.010796,37.285848457044246
314,82.245418,37.46768128064303
315,82.56329,37.5024217460691
316,82.797735,37.285848457044246
317,83.034829,37.40873394515511
318,83.378734,37.07024931861864
319,83.782285,37.285848457044246
320,84.027351,36.89065045269124
321,84.269188,37.1052160595204
322,84.513214,37.1052160595204
323,84.760869,37.1052160595204
324,85.119365,37.1052160595204
325,85.419828,37.285848457044246
326,85.667599,37.01183609760903
327,85.918162,37.285848457044246
328,86.208053,37.1052160595204
329,86.471778,37.1052160595204
330,86.729645,37.40873394515511
331,86.959686,37.285848457044246
332,87.272355,36.89065045269124
333,87.528421,37.285848457044246
334,87.777396,37.285848457044246
335,88.007963,37.01183609760903
336,88.261532,37.1052160595204
337,88.571841,36.711538465182464
338,88.809173,37.285848457044246
339,89.052255,37.685299916696685
340,89.307327,37.285848457044246
341,89.548118,37.285848457044246
342,89.850308,36.711538465182464
343,90.092678,37.1052160595204
344,90.314841,36.711538465182464
345,90.547403,37.285848457044246
346,90.784538,37.1052160595204
347,91.091182,37.285848457044246
348,91.346418,36.5340961920606
349,91.583101,37.1052160595204
350,91.828388,37.285848457044246
351,92.066066,37.285848457044246
352,92.377747,36.711538465182464
353,92.619447,36.711538465182464
354,92.854322,36.711538465182464
355,93.083983,37.1052160595204
356,93.31341,36.711538465182464
357,93.611888,37.285848457044246
358,93.921925,36.89065045269124
359,94.145519,37.285848457044246
360,94.374437,37.3734811789342
361,94.717133,37.1052160595204
362,94.962171,37.285848457044246
363,95.189587,37.01183609760903
364,95.419791,37.285848457044246
365,95.646082,37.59084390214892
366,95.970817,37.285848457044246
367,96.214132,36.5340961920606
368,96.453922,36.711538465182464
369,96.69522,37.40873394515511
370,96.927579,37.40873394515511
371,97.228933,37.1052160595204
372,97.490525,36.711538465182464
373,97.717271,37.46768128064303
374,97.944578,37.1052160595204
375,98.181136,37.5024217460691
376,98.480972,37.1052160595204
377,98.724015,36.832942359995656
378,98.971164,36.5340961920606
379,99.202053,37.285848457044246
380,99.441189,36.832942359995656
381,99.746221,37.1052160595204
382,99.992913,36.5340961920606
383,100.225588,37.285848457044246
384,100.470309,36.711538465182464
385,100.69453,37.685299916696685
386,100.996776,37.285848457044246
387,101.23372,36.5340961920606
388,101.462026,37.1052160595204
389,101.690854,36.711538465182464
390,101.925279,37.1052160595204
391,102.243181,36.711538465182464
392,102.479694,37.1052160595204
393,102.725711,36.711538465182464
394,102.95713,37.40873394515511
395,103.205906,37.1052160595204
396,103.505368,36.711538465182464
397,103.738795,37.285848457044246
398,103.96707,37.01183609760903
399,104.255464,36.711538465182464
400,104.596366,37.01183609760903
401,104.91923,36.711538465182464
402,105.170962,36.711538465182464
403,105.405139,37.1052160595204
404,105.722439,37.1052160595204
405,105.967363,36.711538465182464
406,106.215779,36.711538465182464
407,106.463174,37.1052160595204
408,106.682683,36.92577372836479
409,106.987043,36.5340961920606
410,107.235675,36.711538465182464
411,107.457234,36.711538465182464
412,107.698965,37.01183609760903
413,107.944499,37.1052160595204
414,108.233152,36.711538465182464
415,108.492816,37.1052160595204
416,108.742043,37.285848457044246
417,108.981769,37.01183609760903
418,109.226449,37.1052160595204
419,109.574197,37.1052160595204
420,109.810057,37.1052160595204
421,110.036051,37.285848457044246
422,110.277988,36.711538465182464
423,110.503962,36.711538465182464
424,110.803601,37.01183609760903
425,111.042307,36.711538465182464
426,111.280523,36.711538465182464
427,111.502543,37.40873394515511
428,111.738558,36.5340961920606
429,112.05107,37.1052160595204
430,112.317289,36.414880784129906
431,112.566484,37.1052160595204
432,112.800978,36.5340961920606
433,113.026647,36.711538465182464
434,113.328821,36.711538465182464
435,113.565302,36.711538465182464
436,113.802399,37.01183609760903
437,114.043358,36.65524041139122
438,114.282649,36.5340961920606
439,114.717139,36.5340961920606
440,114.942385,36.5340961920606
441,115.17421,36.5340961920606
442,115.404197,37.1052160595204
443,115.634828,36.89065045269124
444,115.933764,36.92577372836479
445,116.182531,36.711538465182464
446,116.427742,36.5340961920606
447,116.664295,36.711538465182464
448,116.898205,37.285848457044246
449,117.210739,37.01183609760903
450,117.447325,37.1052160595204
451,117.66517,36.711538465182464
452,117.889025,36.832942359995656
453,118.11728,37.1052160595204
454,118.40845,36.89065045269124
455,118.66141,37.01183609760903
456,118.913325,36.5340961920606
457,119.144271,36.711538465182464
458,119.375893,36.711538465182464
459,119.686363,37.1052160595204
460,119.946717,36.711538465182464
461,120.182991,36.147172515922
462,120.419217,36.711538465182464
463,120.652923,36.5340961920606
464,120.933035,36.5340961920606
465,121.23582,36.711538465182464
466,121.485959,36.147172515922
467,121.716026,36.5340961920606
468,122.022236,36.711538465182464
469,122.261174,36.5340961920606
470,122.503151,36.711538465182464
471,122.759723,37.1052160595204
472,122.988349,36.5340961920606
473,123.270184,37.1052160595204
474,123.512085,36.5340961920606
475,123.748127,37.1052160595204
476,123.982467,37.01183609760903
477,124.220781,36.5340961920606
478,124.518432,36.711538465182464
479,124.765029,36.5340961920606
480,125.073802,36.5340961920606
481,125.375289,37.1052160595204
482,125.712185,36.711538465182464
483,125.959244,36.711538465182464
484,126.19911,37.285848457044246
485,126.442526,37.01183609760903
486,126.806337,36.32241122607928
487,127.053993,36.44285367719343
488,127.284365,36.711538465182464
489,127.519677,36.44285367719343
490,127.769718,36.32241122607928
491,128.073384,37.01183609760903
492,128.330938,36.44285367719343
493,128.579235,36.147172515922
494,128.836188,36.32241122607928
495,129.14976,36.832942359995656
496,129.39366,36.147172515922
497,129.648156,36.711538465182464
498,129.899256,36.711538465182464
499,130.142058,36.5340961920606
500,130.459438,36.711538465182464
501,130.717633,36.711538465182464
502,130.942873,36.32241122607928
503,131.178131,36.32241122607928
504,131.430533,36.711538465182464
505,131.741299,36.35783603829993
506,131.984296,36.32241122607928
507,132.216252,36.32241122607928
508,132.441781,36.89065045269124
509,132.669326,36.32241122607928
510,132.992878,36.5340961920606
511,133.240553,36.147172515922
512,133.489782,36.7973827675026
513,133.715857,36.32241122607928
514,133.953721,36.32241122607928
515,134.250335,36.49882511433907
516,134.494158,36.5340961920606
517,134.744996,36.711538465182464
518,135.001025,36.711538465182464
519,135.238768,37.1052160595204
520,135.620673,36.32241122607928
521,135.873628,36.711538465182464
522,136.105494,36.711538465182464
523,136.348965,36.147172515922
524,136.599858,36.147172515922
525,136.909927,36.711538465182464
526,137.140417,36.147172515922
527,137.395618,36.61952582686237
528,137.630193,36.711538465182464
529,137.859957,36.711538465182464
530,138.165313,36.32241122607928
531,138.42161,36.5340961920606
532,138.668657,36.711538465182464
533,138.909566,36.147172515922
534,139.254485,36.147172515922
535,139.505217,36.32241122607928
536,139.776121,36.5340961920606
537,140.025683,36.89065045269124
538,140.348358,36.147172515922
539,140.594096,35.9730988842251
540,140.82596,36.5340961920606
541,141.069316,36.147172515922
542,141.324533,36.147172515922
543,141.642994,36.147172515922
544,141.87098,36.711538465182464
545,142.112476,35.9730988842251
546,142.366483,36.147172515922
547,142.615308,36.44285367719343
548,142.928634,36.832942359995656
549,143.205803,36.711538465182464
550,143.450135,36.32241122607928
551,143.70088,36.32241122607928
552,144.004582,36.5340961920606
553,144.244847,35.9730988842251
554,144.490871,36.147172515922
555,144.72564,36.711538465182464
556,144.958536,36.5340961920606
557,145.240396,36.711538465182464
558,145.504802,36.711538465182464
559,145.79632,36.711538465182464
560,146.152111,36.5340961920606
561,146.443909,36.5340961920606
562,146.698154,36.147172515922
563,146.956109,36.5340961920606
564,147.249097,36.32241122607928
565,147.556524,36.5340961920606
566,147.811296,36.32241122607928
567,148.04539,36.711538465182464
568,148.29432,36.89065045269124
569,148.54938,36.711538465182464
570,148.85387,36.147172515922
571,149.093661,36.32241122607928
572,149.313552,36.147172515922
573,149.550822,36.711538465182464
574,149.784784,36.32241122607928
575,150.088355,36.147172515922
576,150.328369,36.44285367719343
577,150.558166,36.147172515922
578,150.79919,36.32241122607928
579,151.029108,36.147172515922
580,151.343533,36.5340961920606
581,151.642327,36.147172515922
582,151.876252,36.832942359995656
583,152.105638,36.147172515922
584,152.33114,36.147172515922
585,152.646683,36.32241122607928
586,152.907982,36.832942359995656
587,153.15475,36.147172515922
588,153.391822,36.32241122607928
589,153.620277,36.05695354390192
590,153.914253,36.5340961920606
591,154.235362,36.5340961920606
592,154.462397,36.711538465182464
593,154.710197,36.44285367719343
594,155.003375,35.9730988842251
595,155.252677,36.147172515922
596,155.476316,36.711538465182464
597,155.706373,35.9730988842251
598,155.957439,36.32241122607928
599,156.258149,36.147172515922
600,156.587154,36.147172515922
601,156.83875,36.44285367719343
602,157.073451,36.5340961920606
603,157.385037,36.5340961920606
604,157.620635,36.5340961920606
605,157.861691,36.5340961920606
606,158.111459,36.32241122607928
607,158.344192,36.711538465182464
608,158.669309,36.44285367719343
609,158.913705,36.267356136239336
610,159.15638,36.147172515922
611,159.403174,36.147172515922
612,159.641898,36.32241122607928
613,159.94153,36.147172515922
614,160.19411,36.711538465182464
615,160.430297,36.711538465182464
616,160.677748,36.32241122607928
617,160.90891,36.32241122607928
618,161.208703,36.267356136239336
619,161.455074,36.711538465182464
620,161.687702,36.44285367719343
621,161.920437,36.147172515922
622,162.15395,36.147172515922
