,time (s),surface tension (mN/m)
0,0.0,70.53641015943953
1,0.215852,70.82812690477533
2,0.410642,70.81861116815415
3,0.60881,70.53641015943953
4,0.806423,70.53641015943953
5,1.08041,70.82812690477533
6,1.282778,70.53641015943953
7,1.48498,70.82812690477533
8,1.682092,70.49404682433125
9,1.878587,69.92440029538639
10,2.077161,70.82812690477533
11,2.335464,70.20459188173348
12,2.535037,70.49404682433125
13,2.728172,71.12150431551142
14,2.944605,70.82812690477533
15,3.156746,69.63728437304303
16,3.445381,69.92440029538639
17,3.675296,69.63728437304303
18,3.907573,70.20459188173348
19,4.136255,70.82812690477533
20,4.358571,69.92440029538639
21,4.667784,71.11104249152699
22,4.888205,70.20459188173348
23,5.099702,69.92440029538639
24,5.327037,70.49404682433125
25,5.538536,70.49404682433125
26,5.825714,70.78514388600712
27,6.050197,69.92440029538639
28,6.288829,69.92440029538639
29,6.509197,70.78514388600712
30,6.787701,70.49404682433125
31,7.079444,69.63728437304303
32,7.310455,70.21314506721312
33,7.543515,69.63728437304303
34,7.793483,71.40513573820873
35,8.023171,71.12150431551142
36,8.303709,69.63728437304303
37,8.524073,71.40513573820873
38,8.738515,70.53641015943953
39,8.957848,70.49404682433125
40,9.199685,70.53641015943953
41,9.479687,70.49404682433125
42,9.699247,70.82812690477533
43,9.912085,70.20459188173348
44,10.157942,71.40513573820873
45,10.468179,71.40513573820873
46,10.761994,71.40513573820873
47,10.972968,71.11104249152699
48,11.1821,71.40513573820873
49,11.381953,71.40513573820873
50,11.577512,71.40513573820873
51,11.839758,71.40513573820873
52,12.038428,70.82812690477533
53,12.237759,70.49404682433125
54,12.43686,70.78514388600712
55,12.633724,69.92440029538639
56,12.826547,70.78514388600712
57,13.092787,71.40513573820873
58,13.290489,70.49404682433125
59,13.490104,71.40513573820873
60,13.689718,70.53641015943953
61,13.887479,71.40513573820873
62,14.083568,70.78514388600712
63,14.343854,71.12150431551142
64,14.55978,70.49404682433125
65,14.787529,70.49404682433125
66,15.008049,71.40513573820873
67,15.238052,71.40513573820873
68,15.533143,71.40513573820873
69,15.767778,70.49404682433125
70,15.997616,71.40513573820873
71,16.227611,70.20459188173348
72,16.456792,70.49404682433125
73,16.756639,70.78514388600712
74,17.002657,71.70090317907722
75,17.23504,71.40513573820873
76,17.479967,71.40513573820873
77,17.722338,71.70090317907722
78,18.023825,70.82812690477533
79,18.254564,70.82812690477533
80,18.483613,72.32949042095396
81,18.682331,70.82812690477533
82,18.941595,70.49404682433125
83,19.231822,70.53641015943953
84,19.445379,71.11104249152699
85,19.663674,69.92440029538639
86,19.88187,69.92440029538639
87,20.091003,70.78514388600712
88,20.386962,71.11104249152699
89,20.683608,71.40513573820873
90,20.912879,69.92440029538639
91,21.100716,71.12150431551142
92,21.301254,69.92440029538639
93,21.556994,70.49404682433125
94,21.946612,70.49404682433125
95,22.140147,69.92440029538639
96,22.335404,69.31110169951107
97,22.532486,71.40513573820873
98,22.779941,70.49404682433125
99,22.996361,70.82812690477533
100,23.205679,69.92440029538639
101,23.433194,71.07789517362377
102,23.660105,71.70090317907722
103,23.955502,70.78514388600712
104,24.183785,70.78514388600712
105,24.414246,69.63728437304303
106,24.64404,71.40513573820873
107,24.865117,69.92440029538639
108,25.157149,70.49404682433125
109,25.435773,69.03361192854513
110,25.668868,70.20459188173348
111,25.896055,70.49404682433125
112,26.127766,70.78514388600712
113,26.42313,71.40513573820873
114,26.648794,69.92440029538639
115,26.883278,71.99835719435254
116,27.108716,69.92440029538639
117,27.338232,70.20459188173348
118,27.632399,70.20459188173348
119,27.862908,70.49404682433125
120,28.111349,70.49404682433125
121,28.354908,71.70090317907722
122,28.711993,70.20459188173348
123,28.943986,71.40513573820873
124,29.142005,70.78514388600712
125,29.348173,70.78514388600712
126,29.571999,70.20459188173348
127,29.903842,70.49404682433125
128,30.162167,71.70090317907722
129,30.407006,70.49404682433125
130,30.623196,70.78514388600712
131,30.843672,70.49404682433125
132,31.175643,71.70090317907722
133,31.375895,70.49404682433125
134,31.574948,71.12150431551142
135,31.770809,71.11104249152699
136,31.971282,71.40513573820873
137,32.163839,71.70090317907722
138,32.415036,70.49404682433125
139,32.616561,71.40513573820873
140,32.819346,70.53641015943953
141,33.023681,70.49404682433125
142,33.240004,71.99835719435254
143,33.525386,71.40513573820873
144,33.749254,69.92440029538639
145,33.97087,70.49404682433125
146,34.200236,71.40513573820873
147,34.436622,71.40513573820873
148,34.728263,70.82812690477533
149,34.951438,70.20459188173348
150,35.175725,70.49404682433125
151,35.398131,70.49404682433125
152,35.626206,70.49404682433125
153,35.917152,69.92440029538639
154,36.149062,70.20459188173348
155,36.38115,70.49404682433125
156,36.609788,70.49404682433125
157,36.840426,71.70090317907722
158,37.137336,71.40513573820873
159,37.362629,70.21314506721312
160,37.591693,70.78514388600712
161,37.821738,69.63728437304303
162,38.048533,70.20459188173348
163,38.344073,70.78514388600712
164,38.572254,70.78514388600712
165,38.80556,71.70090317907722
166,39.024973,70.20459188173348
167,39.264025,71.11104249152699
168,39.551382,71.11104249152699
169,39.783578,70.20459188173348
170,40.014524,70.21314506721312
171,40.244651,69.63728437304303
172,40.459586,72.03067394494927
173,40.757168,71.70090317907722
174,40.981596,70.20459188173348
175,41.180527,71.11104249152699
176,41.487845,71.11104249152699
177,41.744833,70.21314506721312
178,42.024269,70.49404682433125
179,42.249648,70.82812690477533
180,42.453557,70.24634190778434
181,42.652809,69.92440029538639
182,42.843592,70.53641015943953
183,43.10169,69.35178539688502
184,43.303785,69.63728437304303
185,43.498699,71.12150431551142
186,43.706234,71.40513573820873
187,43.906142,70.82812690477533
188,44.164,70.53641015943953
189,44.364346,69.35178539688502
190,44.56478,70.82812690477533
191,44.772475,69.92440029538639
192,44.991574,70.49404682433125
193,45.272799,71.11104249152699
194,45.503068,70.49404682433125
195,45.735305,70.49404682433125
196,45.964092,70.49404682433125
197,46.195908,70.20459188173348
198,46.493167,70.49404682433125
199,46.718346,70.49404682433125
200,46.946569,70.49404682433125
201,47.178267,70.49404682433125
202,47.40658,69.63728437304303
203,47.697251,71.40513573820873
204,47.927194,71.11104249152699
205,48.15915,70.20459188173348
206,48.386772,70.20459188173348
207,48.617964,70.53641015943953
208,48.900809,70.82812690477533
209,49.141182,69.92440029538639
210,49.388543,70.53641015943953
211,49.61898,70.53641015943953
212,49.840695,71.12150431551142
213,50.140134,71.11104249152699
214,50.37053,69.92440029538639
215,50.603462,70.82812690477533
216,50.854299,69.92440029538639
217,51.080574,71.12150431551142
218,51.350474,70.82812690477533
219,51.582127,69.92440029538639
220,51.832351,70.82812690477533
221,52.085985,71.70090317907722
222,52.303213,69.92440029538639
223,52.603727,70.82812690477533
224,52.832979,71.12150431551142
225,53.065234,70.82812690477533
226,53.270973,69.63728437304303
227,53.462382,69.92440029538639
228,53.706353,71.40513573820873
229,53.905056,70.82812690477533
230,54.095887,71.40513573820873
231,54.292636,70.82812690477533
232,54.491284,69.92440029538639
233,54.689448,71.12150431551142
234,54.935338,70.82812690477533
235,55.14392,71.11104249152699
236,55.340355,71.11104249152699
237,55.547218,70.24634190778434
238,55.767455,71.11104249152699
239,56.049004,69.92440029538639
240,56.270582,69.92440029538639
241,56.490921,71.40513573820873
242,56.71927,70.20459188173348
243,56.950823,69.63728437304303
244,57.235588,69.92440029538639
245,57.471895,70.20459188173348
246,57.701548,69.91676705794434
247,57.93152,69.91676705794434
248,58.159233,70.49404682433125
249,58.451751,69.35178539688502
250,58.683559,70.82812690477533
251,58.913467,70.82812690477533
252,59.142871,69.35178539688502
253,59.395762,70.82812690477533
254,59.687763,71.40513573820873
255,59.917147,71.40513573820873
256,60.167219,70.53641015943953
257,60.419614,70.49404682433125
258,60.646225,70.49404682433125
259,60.943247,71.11104249152699
260,61.195801,69.35178539688502
261,61.420342,70.20459188173348
262,61.625455,71.70090317907722
263,61.825812,71.40513573820873
264,62.087472,70.49404682433125
265,62.385223,69.92440029538639
266,62.58974,70.82812690477533
267,62.804609,70.24634190778434
268,63.025015,71.11104249152699
269,63.305774,70.20459188173348
270,63.537795,70.53641015943953
271,63.755477,71.11104249152699
272,63.956818,71.11104249152699
273,64.15222,70.82812690477533
274,64.399927,70.53641015943953
275,64.612868,70.53641015943953
276,64.813706,70.81861116815415
277,65.020915,71.11104249152699
278,65.231363,70.53641015943953
279,65.496622,69.63728437304303
280,65.700323,69.63728437304303
281,65.894997,70.20459188173348
282,66.09224,71.40513573820873
283,66.290894,71.12150431551142
284,66.488638,69.63728437304303
285,66.76685,70.24634190778434
286,66.986314,71.12150431551142
287,67.205252,70.53641015943953
288,67.425504,70.53641015943953
289,67.687709,71.70090317907722
290,67.972913,71.12150431551142
291,68.186398,69.91676705794434
292,68.404831,71.12150431551142
293,68.626244,70.53641015943953
294,68.853506,71.11104249152699
295,69.146971,70.24634190778434
296,69.376593,69.92440029538639
297,69.603896,71.40513573820873
298,69.834698,69.92440029538639
299,70.064972,69.63728437304303
300,70.352009,70.20459188173348
301,70.586145,69.92440029538639
302,70.814905,70.21314506721312
303,71.046584,70.82812690477533
304,71.277615,70.20459188173348
305,71.570148,70.53641015943953
306,71.799672,69.63728437304303
307,72.028299,70.20459188173348
308,72.257461,69.92440029538639
309,72.5118,70.21314506721312
310,72.886549,71.11104249152699
311,73.112965,70.53641015943953
312,73.321387,70.78514388600712
313,73.528784,71.11104249152699
314,73.735709,70.82812690477533
315,73.996411,69.35178539688502
316,74.218285,71.12150431551142
317,74.427413,70.21314506721312
318,74.643826,69.92440029538639
319,74.865505,70.81861116815415
320,75.149414,70.49404682433125
321,75.37839,69.92440029538639
322,75.595414,70.21314506721312
323,75.79301,68.75101428391895
324,75.981218,69.92440029538639
325,76.243315,71.40513573820873
326,76.440518,70.82812690477533
327,76.638921,69.63728437304303
328,76.839262,70.78514388600712
329,77.044376,69.63728437304303
330,77.306757,71.12150431551142
331,77.515142,70.49404682433125
332,77.716367,69.63728437304303
333,77.913133,69.92440029538639
334,78.110233,69.92440029538639
335,78.30308,70.21314506721312
336,78.548249,71.12150431551142
337,78.757991,69.92440029538639
338,78.96,71.40513573820873
339,79.175687,70.53641015943953
340,79.401242,70.82812690477533
341,79.688631,70.82812690477533
342,79.920209,69.92440029538639
343,80.14197,70.49404682433125
344,80.364241,70.82812690477533
345,80.5882,71.11104249152699
346,80.877933,70.49404682433125
347,81.110249,69.63728437304303
348,81.332445,71.70090317907722
349,81.569298,69.92440029538639
350,81.800369,70.82812690477533
351,82.098351,71.12150431551142
352,82.345487,70.21314506721312
353,82.581132,71.12150431551142
354,82.803478,71.11104249152699
355,83.077712,70.20459188173348
356,83.387205,70.82812690477533
357,83.638385,70.20459188173348
358,83.872452,69.63728437304303
359,84.110779,69.92440029538639
360,84.328036,71.40513573820873
361,84.59596,71.12150431551142
362,84.804835,69.63728437304303
363,85.021365,70.49404682433125
364,85.232546,71.12150431551142
365,85.452625,70.78514388600712
366,85.73691,70.53641015943953
367,85.974884,71.12150431551142
368,86.184057,69.63728437304303
369,86.393396,70.49404682433125
370,86.621077,70.21314506721312
371,86.908564,70.82812690477533
372,87.113922,71.12150431551142
373,87.318486,70.49404682433125
374,87.517583,70.53641015943953
375,87.71953,69.92440029538639
376,87.969435,71.12150431551142
377,88.174772,70.82812690477533
378,88.377495,70.20459188173348
379,88.573831,70.20459188173348
380,88.766849,71.70090317907722
381,88.963273,69.92440029538639
382,89.223386,71.12150431551142
383,89.46197,69.63728437304303
384,89.662877,70.53641015943953
385,89.883647,70.53641015943953
386,90.101283,71.36416105631997
387,90.383862,69.59600155576393
388,90.593423,70.21314506721312
389,90.820271,70.21314506721312
390,91.040097,71.11104249152699
391,91.273118,70.78514388600712
392,91.573623,70.53641015943953
393,91.785726,70.20459188173348
394,91.999387,69.92440029538639
395,92.211097,70.78514388600712
396,92.429075,70.20459188173348
397,92.714916,70.20459188173348
398,92.952264,69.31110169951107
399,93.224297,70.20459188173348
400,93.55909,69.31110169951107
401,93.854385,70.20459188173348
402,94.079677,68.75101428391895
403,94.311266,70.53641015943953
404,94.540844,70.49404682433125
405,94.768092,70.82812690477533
406,95.061796,69.92440029538639
407,95.274788,70.49404682433125
408,95.513296,70.21314506721312
409,95.763968,70.49404682433125
410,95.999897,71.12150431551142
411,96.268243,71.40513573820873
412,96.477622,70.49404682433125
413,96.680045,71.40513573820873
414,96.895544,70.49404682433125
415,97.114608,70.49404682433125
416,97.409141,69.88251213174543
417,97.639546,71.12150431551142
418,97.856235,70.50353069755307
419,98.07415,69.63728437304303
420,98.288455,70.82812690477533
421,98.579066,71.70090317907722
422,98.7952,70.78514388600712
423,98.990303,71.99835719435254
424,99.192947,69.59600155576393
425,99.402067,71.70090317907722
426,99.656238,71.70090317907722
427,99.88145,71.70090317907722
428,100.115177,71.11104249152699
429,100.320435,70.49404682433125
430,100.51625,68.75101428391895
431,100.767671,70.49404682433125
432,100.977093,69.92440029538639
433,101.174501,71.70090317907722
434,101.373104,71.70090317907722
435,101.572611,69.59600155576393
436,101.846047,71.70090317907722
437,102.076211,70.78514388600712
438,102.29615,70.78514388600712
439,102.516599,70.78514388600712
440,102.746998,71.12150431551142
441,103.033563,71.40513573820873
442,103.267567,71.70090317907722
443,103.496792,71.12150431551142
444,103.816386,70.78514388600712
445,104.093312,70.78514388600712
446,104.331755,70.20459188173348
447,104.565804,71.37231290175424
448,104.792497,71.70090317907722
449,105.021755,69.59600155576393
450,105.300566,69.88251213174543
451,105.508712,70.78514388600712
452,105.732656,70.49404682433125
453,105.959558,70.49404682433125
454,106.192992,70.20459188173348
455,106.489577,71.07789517362377
456,106.797482,70.78514388600712
457,107.028989,69.88251213174543
458,107.279012,70.21314506721312
459,107.487245,70.78514388600712
460,107.757,69.92440029538639
461,107.987206,70.49404682433125
462,108.202938,70.49404682433125
463,108.424956,71.70090317907722
464,108.641123,70.49404682433125
465,108.932282,69.92440029538639
466,109.158291,70.78514388600712
467,109.381119,69.92440029538639
468,109.583612,70.49404682433125
469,109.80269,71.40513573820873
470,110.094284,70.21314506721312
471,110.295471,69.92440029538639
472,110.491166,71.12150431551142
473,110.697812,70.78514388600712
474,110.900696,69.59600155576393
475,111.150816,70.78514388600712
476,111.353698,69.59600155576393
477,111.544907,70.49404682433125
478,111.742822,70.82812690477533
479,111.941817,71.70090317907722
480,112.139084,70.49404682433125
481,112.387184,69.31780727703627
482,112.586201,70.20459188173348
483,112.787228,69.92440029538639
484,112.983862,70.21314506721312
485,113.199676,70.78514388600712
486,113.480536,70.82812690477533
487,113.700686,70.49404682433125
488,113.930157,70.49404682433125
489,114.212279,70.78514388600712
490,114.460716,71.41655467182608
491,114.734284,70.49404682433125
492,114.940953,69.59600155576393
493,115.17053,69.92440029538639
494,115.393648,71.70090317907722
495,115.613848,70.49404682433125
496,115.906635,69.92440029538639
497,116.131501,70.49404682433125
498,116.360229,69.92440029538639
499,116.591617,70.21314506721312
500,116.818206,71.99835719435254
501,117.111279,71.99835719435254
502,117.341257,71.99835719435254
503,117.574003,70.20459188173348
504,117.802433,70.49404682433125
505,118.033541,69.88251213174543
506,118.317367,69.92440029538639
507,118.555162,70.21314506721312
508,118.784621,70.49404682433125
509,119.013263,70.49404682433125
510,119.242417,69.92440029538639
511,119.558118,70.49404682433125
512,119.797937,69.59600155576393
513,120.014264,71.70090317907722
514,120.23366,71.12150431551142
515,120.452804,70.49404682433125
516,120.747387,70.78514388600712
517,120.956068,69.92440029538639
518,121.173991,70.78514388600712
519,121.39156,70.20459188173348
520,121.611631,70.21314506721312
521,121.90327,69.63728437304303
522,122.14598,70.78514388600712
523,122.337218,70.78514388600712
524,122.52509,70.49404682433125
525,122.711228,70.78514388600712
526,122.902837,71.70090317907722
527,123.153912,70.20459188173348
528,123.374818,71.70090317907722
529,123.572374,71.11104249152699
530,123.771488,69.63728437304303
531,123.970447,69.92440029538639
532,124.232585,69.63728437304303
533,124.452684,70.82812690477533
534,124.692798,69.63728437304303
535,124.8879,70.49404682433125
536,125.089553,70.49404682433125
537,125.343523,70.21314506721312
538,125.557969,70.78514388600712
539,125.770445,71.70090317907722
540,125.986897,70.49404682433125
541,126.208758,70.78514388600712
542,126.499738,70.49404682433125
543,126.732454,70.49404682433125
544,127.004326,69.92440029538639
545,127.220487,70.21314506721312
546,127.430502,70.78514388600712
547,127.691806,70.49404682433125
548,127.911726,70.78514388600712
549,128.139732,71.70090317907722
550,128.359969,69.03361192854513
551,128.588155,69.59600155576393
552,128.878373,70.49404682433125
553,129.099421,70.49404682433125
554,129.321043,70.49404682433125
555,129.599622,69.91676705794434
556,129.831781,69.31110169951107
557,130.125169,70.20459188173348
558,130.343651,71.70090317907722
559,130.574068,70.21314506721312
560,130.812911,70.20459188173348
561,131.043678,69.63728437304303
562,131.326556,71.40513573820873
563,131.544081,69.92440029538639
564,131.765597,70.82812690477533
565,132.003639,71.41655467182608
566,132.231814,71.12150431551142
567,132.527206,71.07789517362377
568,132.74486,69.03361192854513
569,132.967004,69.59600155576393
570,133.174055,71.99835719435254
571,133.388483,69.59600155576393
572,133.668938,70.49404682433125
573,133.900379,70.78514388600712
574,134.112143,70.78514388600712
575,134.327743,70.21314506721312
576,134.951883,70.21314506721312
577,135.215518,70.49404682433125
578,135.446162,70.78514388600712
579,135.676428,72.29751027474663
580,135.89653,69.03361192854513
581,136.202474,71.41655467182608
582,136.426994,70.21314506721312
583,136.664024,70.21314506721312
584,136.866283,69.92440029538639
585,137.065554,70.49404682433125
586,137.328759,70.82812690477533
587,137.518212,70.50353069755307
588,137.706985,69.92440029538639
589,137.909928,71.12150431551142
590,138.108967,71.07789517362377
591,138.305704,70.21314506721312
592,138.564935,69.92440029538639
593,138.767621,70.82812690477533
594,139.199037,70.78514388600712
595,139.396664,70.49404682433125
596,139.657494,69.63728437304303
597,139.865745,69.31110169951107
598,140.062074,71.41655467182608
599,140.269149,69.31110169951107
600,140.501075,69.59600155576393
601,140.769372,69.92440029538639
602,141.001487,70.21314506721312
603,141.222149,69.92440029538639
604,141.445167,69.92440029538639
605,141.673301,69.92440029538639
606,141.957435,70.49404682433125
607,142.195388,70.49404682433125
608,142.436354,69.92440029538639
609,142.676741,71.99835719435254
610,142.904982,71.40513573820873
611,143.208984,69.92440029538639
612,143.451324,70.21314506721312
613,143.689025,69.63728437304303
614,143.906784,69.63728437304303
615,144.136558,69.92440029538639
616,144.46339,69.63728437304303
617,144.719346,70.21314506721312
618,144.92647,70.21314506721312
619,145.145464,70.21314506721312
620,145.43772,70.78514388600712
621,145.737794,69.59600155576393
622,145.959272,70.21314506721312
623,146.180953,71.12150431551142
