,time (s),surface tension (mN/m)
0,0.10132,33.59358665334898
1,0.334014,33.59358665334898
2,0.580491,33.59358665334898
3,0.82343,33.59358665334898
4,1.138003,33.59358665334898
5,1.390182,33.399179502588375
6,1.64569,33.399179502588375
7,1.872544,33.399179502588375
8,2.099017,33.667984692372286
9,2.40508,33.399179502588375
10,2.644893,33.667984692372286
11,2.874019,33.827963837008355
12,3.102942,33.557881373733665
13,3.335244,33.827963837008355
14,3.660896,33.472902501079275
15,3.902923,33.472902501079275
16,4.148926,33.472902501079275
17,4.377371,33.631955515967924
18,4.610729,33.631955515967924
19,4.923124,33.631955515967924
20,5.150599,33.631955515967924
21,5.397351,33.98899314701695
22,5.652675,33.903727789176756
23,5.89052,33.98899314701695
24,6.208094,33.98899314701695
25,6.449884,33.631955515967924
26,6.679585,33.631955515967924
27,6.903942,33.631955515967924
28,7.141697,33.631955515967924
29,7.448914,33.631955515967924
30,7.688106,33.792052523570305
31,7.922091,33.631955515967924
32,8.154768,33.631955515967924
33,8.388605,33.631955515967924
34,8.678675,33.792052523570305
35,8.914601,33.631955515967924
36,9.135424,33.631955515967924
37,9.413696,33.631955515967924
38,9.65866,33.631955515967924
39,9.987354,33.792052523570305
40,10.287091,33.631955515967924
41,10.585844,33.631955515967924
42,10.812531,33.631955515967924
43,11.092058,33.631955515967924
44,11.333401,33.631955515967924
45,11.539585,33.631955515967924
46,11.771846,33.631955515967924
47,11.997141,33.792052523570305
48,12.29192,33.631955515967924
49,12.528796,33.631955515967924
50,12.74919,33.631955515967924
51,13.004608,33.792052523570305
52,13.231157,33.631955515967924
53,13.539629,33.631955515967924
54,13.776306,33.631955515967924
55,14.007495,33.631955515967924
56,14.260677,33.631955515967924
57,14.487825,33.631955515967924
58,14.787174,33.631955515967924
59,15.027488,33.631955515967924
60,15.275592,33.631955515967924
61,15.503174,33.631955515967924
62,15.727465,33.631955515967924
63,16.016969,33.631955515967924
64,16.263135,33.631955515967924
65,16.48512,33.631955515967924
66,16.715392,33.631955515967924
67,16.946337,33.631955515967924
68,17.246116,33.631955515967924
69,17.489177,33.631955515967924
70,17.726805,33.631955515967924
71,17.952365,33.472902501079275
72,18.185086,33.631955515967924
73,18.492876,33.631955515967924
74,18.76237,33.631955515967924
75,19.013237,33.631955515967924
76,19.24057,33.631955515967924
77,19.474242,33.631955515967924
78,19.770179,33.631955515967924
79,20.053726,33.631955515967924
80,20.286969,33.631955515967924
81,20.522237,33.631955515967924
82,20.889423,33.631955515967924
83,21.164047,33.631955515967924
84,21.400476,33.631955515967924
85,21.624304,33.631955515967924
86,21.855241,33.631955515967924
87,22.149512,33.631955515967924
88,22.396912,33.631955515967924
89,22.626607,33.631955515967924
90,22.864193,33.631955515967924
91,23.085505,33.631955515967924
92,23.379441,33.631955515967924
93,23.630884,33.631955515967924
94,23.862174,33.631955515967924
95,24.092327,33.631955515967924
96,24.322613,33.631955515967924
97,24.641117,33.98899314701695
98,24.885009,33.631955515967924
99,25.114725,33.631955515967924
100,25.343007,33.792052523570305
101,25.576185,34.15108156841253
102,25.886689,33.631955515967924
103,26.131099,33.631955515967924
104,26.388161,33.631955515967924
105,26.618783,33.631955515967924
106,26.86638,33.631955515967924
107,27.185517,33.631955515967924
108,27.429292,33.631955515967924
109,27.67839,33.631955515967924
110,27.907922,33.631955515967924
111,28.131727,33.631955515967924
112,28.431872,33.631955515967924
113,28.685823,33.98899314701695
114,28.912325,33.472902501079275
115,29.150728,33.472902501079275
116,29.393915,33.631955515967924
117,29.693128,33.631955515967924
118,29.954608,33.98899314701695
119,30.179383,33.631955515967924
120,30.440702,33.472902501079275
121,30.658411,33.472902501079275
122,30.956605,33.631955515967924
123,31.281792,33.631955515967924
124,31.524244,33.631955515967924
125,31.750529,33.631955515967924
126,32.059902,33.631955515967924
127,32.317116,33.631955515967924
128,32.555781,33.98899314701695
129,32.805949,33.472902501079275
130,33.043376,33.631955515967924
131,33.353311,33.631955515967924
132,33.595826,33.631955515967924
133,33.80932,33.472902501079275
134,34.052198,33.98899314701695
135,34.282443,33.472902501079275
136,34.583715,33.472902501079275
137,34.822624,33.631955515967924
138,35.059915,33.98899314701695
139,35.286767,33.98899314701695
140,35.517807,33.631955515967924
141,35.814646,33.631955515967924
142,36.051577,33.98899314701695
143,36.282287,33.472902501079275
144,36.508521,33.472902501079275
145,36.767471,33.98899314701695
146,37.060933,33.472902501079275
147,37.289802,33.98899314701695
148,37.520982,33.792052523570305
149,37.748299,33.98899314701695
150,37.981537,33.98899314701695
151,38.261216,33.98899314701695
152,38.507342,33.98899314701695
153,38.727566,33.98899314701695
154,38.960583,33.98899314701695
155,39.184588,33.472902501079275
156,39.475567,33.472902501079275
157,39.71519,33.472902501079275
158,39.938225,33.472902501079275
159,40.175437,33.98899314701695
160,40.379146,33.472902501079275
161,40.690388,33.472902501079275
162,40.940492,33.98899314701695
163,41.173019,33.631955515967924
164,41.422161,33.98899314701695
165,41.794556,33.472902501079275
166,42.049311,33.472902501079275
167,42.27563,33.98899314701695
168,42.506832,33.98899314701695
169,42.737013,33.98899314701695
170,43.024238,33.472902501079275
171,43.282216,33.472902501079275
172,43.518734,33.98899314701695
173,43.766759,33.20565484751066
174,44.112955,33.98899314701695
175,44.364293,33.98899314701695
176,44.595097,33.98899314701695
177,44.816704,33.631955515967924
178,45.05663,33.472902501079275
179,45.346955,33.98899314701695
180,45.610761,33.98899314701695
181,45.911855,33.98899314701695
182,46.142649,33.472902501079275
183,46.432267,33.98899314701695
184,46.690601,33.98899314701695
185,46.919444,33.472902501079275
186,47.170158,33.631955515967924
187,47.412703,33.631955515967924
188,47.709524,33.631955515967924
189,47.939329,33.631955515967924
190,48.18673,33.98899314701695
191,48.413936,33.98899314701695
192,48.633712,33.98899314701695
193,48.924621,33.98899314701695
194,49.15219,33.631955515967924
195,49.378507,33.631955515967924
196,49.618802,33.827963837008355
197,49.855769,33.631955515967924
198,50.138484,33.98899314701695
199,50.383779,33.98899314701695
200,50.633101,33.472902501079275
201,50.861915,33.98899314701695
202,51.103867,33.98899314701695
203,51.416979,33.827963837008355
204,51.656947,33.98899314701695
205,51.969288,33.472902501079275
206,52.257984,33.98899314701695
207,52.555171,33.472902501079275
208,52.805778,33.827963837008355
209,53.034672,33.631955515967924
210,53.280964,33.98899314701695
211,53.533647,33.98899314701695
212,53.846402,33.98899314701695
213,54.084182,33.98899314701695
214,54.31834,33.98899314701695
215,54.545652,33.827963837008355
216,54.77265,33.827963837008355
217,55.060633,33.631955515967924
218,55.299475,33.98899314701695
219,55.537817,33.98899314701695
220,55.773518,33.71762502573115
221,56.007088,33.98899314701695
222,56.338727,33.98899314701695
223,56.647878,33.827963837008355
224,56.879338,33.98899314701695
225,57.103569,33.98899314701695
226,57.338652,33.98899314701695
227,57.633432,33.98899314701695
228,57.931641,33.98899314701695
229,58.179617,33.98899314701695
230,58.422337,33.98899314701695
231,58.722543,33.98899314701695
232,58.955946,33.827963837008355
233,59.19697,33.98899314701695
234,59.423311,33.827963837008355
235,59.673903,33.98899314701695
236,59.969522,33.98899314701695
237,60.214585,33.827963837008355
238,60.44618,33.98899314701695
239,60.680527,33.98899314701695
240,60.923724,33.98899314701695
241,61.230838,33.98899314701695
242,61.512136,33.827963837008355
243,61.746758,33.98899314701695
244,61.969583,33.98899314701695
245,62.197019,33.98899314701695
246,62.508504,33.98899314701695
