,time (s),surface tension (mN/m)
0,0.101401,74.01672217878684
1,0.395137,73.37424366998725
2,0.642195,73.0706620461334
3,0.874481,73.37424366998725
4,1.191024,72.13820318121769
5,1.403381,72.76880520269255
6,1.6282,73.0706620461334
7,1.832859,74.32519207989286
8,2.047156,72.76880520269255
9,2.317107,72.12855763332288
10,2.539983,71.84111343046254
11,2.73616,73.37424366998725
12,2.928077,73.97199471317096
13,3.126765,73.0706620461334
14,3.368159,73.37424366998725
15,3.568243,73.37424366998725
16,3.818703,73.37424366998725
17,4.048067,73.37424366998725
18,4.296856,73.0706620461334
19,4.614207,73.66593992948236
20,4.878532,72.76880520269255
21,5.091096,72.76880520269255
22,5.299524,74.93069012496171
23,5.532104,74.63543362921855
24,5.780137,71.84111343046254
25,5.989512,74.32519207989286
26,6.198218,71.84111343046254
27,6.41782,72.43698463975404
28,6.612906,73.67956286469335
29,6.854428,73.67956286469335
30,7.056458,73.0706620461334
31,7.250647,73.37424366998725
32,7.448295,73.37424366998725
33,7.665763,72.13820318121769
34,7.957182,73.37424366998725
35,8.223842,73.37424366998725
36,8.475334,72.13820318121769
37,8.724871,73.02710020303316
38,9.018591,73.37424366998725
39,9.241747,73.37424366998725
40,9.45454,72.43698463975404
41,9.649365,74.63543362921855
42,9.870383,73.67956286469335
43,10.14047,73.37424366998725
44,10.342017,73.37424366998725
45,10.538891,73.37424366998725
46,10.728715,73.37424366998725
47,10.92002,72.7374703136792
48,11.11616,72.43698463975404
49,11.339867,72.43698463975404
50,11.563938,72.43698463975404
51,11.817119,73.37424366998725
52,12.066422,72.13820318121769
53,12.315819,73.37424366998725
54,12.613724,74.63543362921855
55,12.839938,73.67956286469335
56,13.047363,72.13820318121769
57,13.299728,74.32519207989286
58,13.504037,72.43698463975404
59,13.749835,72.43698463975404
60,13.97625,72.43698463975404
61,14.242409,72.43698463975404
62,14.432005,73.97199471317096
63,14.635018,73.98663253520732
64,14.88093,72.13820318121769
65,15.07617,73.66593992948236
66,15.259116,73.37424366998725
67,15.481624,73.66593992948236
68,15.742687,72.7374703136792
69,16.036652,73.37424366998725
70,16.28711,73.97199471317096
71,16.535686,73.0706620461334
72,16.770695,73.37424366998725
73,16.980609,73.37424366998725
74,17.245694,71.84111343046254
75,17.456837,73.67956286469335
76,17.672257,73.98663253520732
77,17.881793,72.13820318121769
78,18.121063,73.98663253520732
79,18.380342,73.37424366998725
80,18.585709,74.63543362921855
81,18.789609,72.43698463975404
82,18.982853,74.27980122301668
83,19.182313,71.5131850675283
84,19.379174,73.67956286469335
85,19.631294,73.37424366998725
86,19.901425,75.26128458258488
87,20.148927,71.5131850675283
88,20.402274,73.03967282222943
89,20.721056,73.37424366998725
90,20.959187,72.43698463975404
91,21.152178,73.67956286469335
92,21.364266,73.0706620461334
93,21.571891,72.7374703136792
94,21.820677,73.0706620461334
95,22.024283,73.98663253520732
96,22.20181,73.37424366998725
97,22.399545,72.43698463975404
98,22.595483,74.94746002459519
99,22.795014,72.13820318121769
100,23.040824,73.0706620461334
101,23.2502,73.37424366998725
102,23.48796,72.43698463975404
103,23.740141,73.98663253520732
104,23.989992,74.32519207989286
105,24.280662,72.43698463975404
106,24.508895,72.43698463975404
107,24.72498,74.27980122301668
108,24.948035,73.98663253520732
109,25.18331,75.24345908991
110,25.454044,72.7374703136792
111,25.694037,73.98663253520732
112,25.91992,73.03967282222943
113,26.138902,73.98663253520732
114,26.345017,71.5131850675283
115,26.585487,72.13820318121769
116,26.785242,73.37424366998725
117,26.982365,71.21911744007981
118,27.166666,72.7374703136792
119,27.350409,72.72588468971693
120,27.570749,72.7374703136792
121,27.847968,73.67956286469335
122,28.113696,73.67956286469335
123,28.37817,74.63543362921855
124,28.626205,71.5131850675283
125,28.845946,74.27980122301668
126,29.118419,73.37424366998725
127,29.355808,73.37424366998725
128,29.574787,72.43698463975404
129,29.804092,71.5131850675283
130,30.016179,73.0706620461334
131,30.308861,72.13820318121769
132,30.509941,74.63543362921855
133,30.710855,72.43698463975404
134,30.926657,72.13820318121769
135,31.115631,72.43698463975404
136,31.364754,73.67956286469335
137,31.621244,72.43698463975404
138,31.863984,72.13820318121769
139,32.113742,73.67956286469335
140,32.343557,73.98663253520732
141,32.614938,73.67956286469335
142,32.831873,70.9267091457842
143,33.057773,72.13820318121769
144,33.329287,72.7374703136792
145,33.536774,73.98663253520732
146,33.79817,72.43698463975404
147,34.025212,72.43698463975404
148,34.225976,73.67956286469335
149,34.416338,73.37424366998725
150,34.615353,73.67956286469335
151,34.836448,73.67956286469335
152,35.042017,72.13820318121769
153,35.2279,73.37424366998725
154,35.453687,73.02710020303316
155,35.674854,73.0706620461334
156,35.977225,72.43698463975404
157,36.249517,73.37424366998725
158,36.498845,72.43698463975404
159,36.727178,72.43698463975404
160,36.936498,73.37424366998725
161,37.173147,72.43698463975404
162,37.379096,72.7374703136792
163,37.596425,72.43698463975404
164,37.819526,72.43698463975404
165,38.044259,72.43698463975404
166,38.276621,72.43698463975404
167,38.485664,73.67956286469335
168,38.676444,72.13820318121769
169,38.878166,73.67956286469335
170,39.06989,72.7374703136792
171,39.266654,72.43698463975404
172,39.559204,72.7374703136792
173,39.820591,72.13820318121769
174,40.070853,72.13820318121769
175,40.318644,73.37424366998725
176,40.613119,72.43698463975404
177,40.844172,72.13820318121769
178,41.181906,73.98663253520732
179,41.382921,71.5131850675283
180,41.611613,73.67956286469335
181,41.878988,72.13820318121769
182,42.119712,72.7374703136792
183,42.322688,73.37424366998725
184,42.515712,73.37424366998725
185,42.710639,72.43698463975404
186,42.949186,73.37424366998725
187,43.201315,72.13820318121769
188,43.432116,72.13820318121769
189,43.662137,71.21911744007981
190,43.897616,72.43698463975404
191,44.182254,72.13820318121769
192,44.42361,73.33003381530925
193,44.638216,72.43698463975404
194,44.851071,73.37424366998725
195,45.084003,72.13820318121769
196,45.336044,71.5131850675283
197,45.559718,72.43698463975404
198,45.776089,72.43698463975404
199,45.982293,74.58937246910675
200,46.183975,72.43698463975404
201,46.420433,72.43698463975404
202,46.612142,73.98663253520732
203,46.810131,72.43698463975404
204,47.0048,73.98663253520732
205,47.228057,73.67956286469335
206,47.542793,72.43698463975404
207,47.778222,71.5131850675283
208,48.023763,73.37424366998725
209,48.275197,73.03967282222943
210,48.486786,73.37424366998725
211,48.741915,73.37424366998725
212,48.968442,73.98663253520732
213,49.174602,73.37424366998725
214,49.388846,73.67956286469335
215,49.593306,72.7374703136792
216,49.814532,72.7374703136792
217,50.027127,73.03967282222943
218,50.222511,72.7374703136792
219,50.412499,73.67956286469335
220,50.602881,73.67956286469335
221,50.809193,73.67956286469335
222,51.063346,72.7374703136792
223,51.45161,73.98663253520732
224,51.701777,73.03967282222943
225,51.952323,73.98663253520732
226,52.229271,73.37424366998725
227,52.453579,73.03967282222943
228,52.661597,73.03967282222943
229,52.898381,72.43698463975404
230,53.099347,73.98663253520732
231,53.368929,71.5131850675283
232,53.586421,71.5131850675283
233,53.774039,71.80892425978993
234,53.963015,74.29546570221055
235,54.162382,72.1063473573456
236,54.356239,74.27980122301668
237,54.597085,73.03967282222943
238,54.798667,72.43698463975404
239,55.025973,73.67956286469335
240,55.292605,72.7374703136792
241,55.536479,72.7374703136792
242,55.878109,72.7374703136792
243,56.137416,73.03967282222943
244,56.357318,73.98663253520732
245,56.573282,72.7374703136792
246,56.795532,73.67956286469335
247,57.045345,73.03967282222943
248,57.275456,73.98663253520732
249,57.496634,73.98663253520732
250,57.704827,72.7374703136792
251,57.908983,72.7374703136792
252,58.162814,73.03967282222943
253,58.368228,72.7374703136792
254,58.576678,73.67956286469335
255,58.778812,73.98663253520732
256,58.967451,73.98663253520732
257,59.241168,74.29546570221055
258,59.489955,72.7374703136792
259,59.741582,74.29546570221055
260,59.994221,72.1063473573456
261,60.22058,71.80892425978993
262,60.474739,73.03967282222943
263,60.690782,71.80892425978993
264,60.944631,73.34360489744486
265,61.162138,73.98663253520732
266,61.38081,71.5131850675283
267,61.638596,72.7374703136792
268,61.856113,74.60607550333452
269,62.046222,72.7374703136792
270,62.24501,75.26128458258488
271,62.437878,73.03967282222943
272,62.625805,71.5131850675283
273,62.874614,73.98663253520732
274,63.115413,73.03967282222943
275,63.408812,73.98663253520732
276,63.646956,72.43698463975404
277,63.958932,71.5131850675283
278,64.209768,73.98663253520732
279,64.428692,73.98663253520732
280,64.634818,72.1063473573456
281,64.866581,71.80892425978993
282,65.126532,73.03967282222943
283,65.35698,72.43698463975404
284,65.570607,73.34360489744486
285,65.771788,73.03967282222943
286,65.964967,72.7374703136792
287,66.200381,73.03967282222943
288,66.399495,74.29546570221055
289,66.594284,73.03967282222943
290,66.785118,72.7374703136792
291,67.01802,73.03967282222943
292,67.309763,73.98663253520732
293,67.574887,72.1063473573456
294,67.812845,73.63469824858542
295,68.05022,73.03967282222943
296,68.263657,73.03967282222943
297,68.535696,72.70629518123089
298,68.761542,71.80892425978993
299,68.971351,73.67956286469335
300,69.185388,73.94110633862473
301,69.413688,73.03967282222943
302,69.644279,73.34360489744486
303,69.845392,72.43698463975404
304,70.039198,73.03967282222943
305,70.230432,73.34360489744486
306,70.418055,72.1063473573456
307,70.603359,72.1063473573456
308,70.869634,73.03967282222943
309,71.124674,73.34360489744486
310,71.373508,72.40546681063861
311,71.62568,72.1063473573456
312,71.92135,74.2492710361123
313,72.166842,73.34360489744486
314,72.378305,73.03967282222943
315,72.633399,73.64927938535908
316,72.854422,74.29546570221055
317,73.128731,73.34360489744486
318,73.354069,73.34360489744486
319,73.548931,73.34360489744486
320,73.739331,72.7374703136792
321,73.939964,73.03967282222943
322,74.174039,72.40546681063861
323,74.375479,71.80892425978993
324,74.571257,72.1063473573456
325,74.788244,72.1063473573456
326,75.029026,73.03967282222943
327,75.324291,73.34360489744486
328,75.575648,73.03967282222943
329,75.822935,73.03967282222943
330,76.032415,72.70629518123089
331,76.247941,72.7374703136792
332,76.549969,72.1063473573456
333,76.763982,73.03967282222943
334,76.974952,72.7374703136792
335,77.188066,72.40546681063861
336,77.41089,73.03967282222943
337,77.645425,73.03967282222943
338,77.84891,73.34360489744486
339,78.039104,73.03967282222943
340,78.227132,72.40546681063861
341,78.415547,72.1063473573456
342,78.709279,73.34360489744486
343,78.986311,72.1063473573456
344,79.232931,73.34360489744486
345,79.476776,73.34360489744486
346,79.704145,73.98663253520732
347,79.966372,71.80892425978993
348,80.189238,72.1063473573456
349,80.449322,73.64927938535908
350,80.656099,72.9953256105865
351,80.913965,72.69376934900356
352,81.193412,72.7374703136792
353,81.437613,72.69376934900356
354,81.631359,73.64927938535908
355,81.822757,73.34360489744486
356,82.021616,72.40546681063861
357,82.27264,73.03967282222943
358,82.459711,72.7374703136792
359,82.691075,72.1063473573456
360,82.961771,73.64927938535908
361,83.214186,72.1063473573456
362,83.508967,72.1063473573456
363,83.75738,73.34360489744486
364,84.006831,72.1063473573456
365,84.216416,73.64927938535908
366,84.443575,73.64927938535908
367,84.682404,73.34360489744486
368,84.910852,73.34360489744486
369,85.125179,73.03967282222943
370,85.353431,72.40546681063861
371,85.548705,72.7374703136792
372,85.787269,73.34360489744486
373,85.977905,73.34360489744486
374,86.181773,73.34360489744486
375,86.370617,73.34360489744486
376,86.600279,73.94110633862473
377,86.914493,72.7374703136792
378,87.182462,72.1063473573456
379,87.432977,70.89369744024289
380,87.656322,74.60607550333452
381,87.871716,72.1063473573456
382,88.130853,74.60607550333452
383,88.388325,74.60607550333452
384,88.591256,73.64927938535908
385,88.808337,73.03967282222943
386,89.029736,73.64927938535908
387,89.309261,73.64927938535908
388,89.502574,72.1063473573456
389,89.696503,73.34360489744486
390,89.920714,73.64927938535908
391,90.121379,73.34360489744486
392,90.363155,73.64927938535908
393,90.587421,72.70629518123089
394,90.837369,72.40546681063861
395,91.108695,73.64927938535908
396,91.358625,72.1063473573456
397,91.652176,72.70629518123089
398,91.877292,73.64927938535908
399,92.100594,72.40546681063861
400,92.365072,73.34360489744486
401,92.631027,72.70629518123089
402,92.949616,73.34360489744486
403,93.152219,73.34360489744486
404,93.367157,73.03967282222943
405,93.567196,72.70629518123089
406,93.761724,72.70629518123089
407,93.997924,72.70629518123089
408,94.200629,73.34360489744486
409,94.382561,72.70629518123089
410,94.622568,73.64927938535908
411,94.888009,73.64927938535908
412,95.186641,73.64927938535908
413,95.431659,72.70629518123089
414,95.701243,71.48082062077474
415,95.931501,72.40546681063861
416,96.138255,73.03967282222943
417,96.444192,73.34360489744486
418,96.695209,73.03967282222943
419,96.914476,73.95670924720307
420,97.148707,73.95670924720307
421,97.357149,73.34360489744486
422,97.588599,74.55920540786919
423,97.792299,72.40546681063861
424,97.981885,73.64927938535908
425,98.192912,71.1864271071295
426,98.44196,74.91847519439992
427,98.738266,72.70629518123089
428,98.991306,71.77689026520319
429,99.230021,73.00884514297255
430,99.442981,73.34360489744486
431,99.668899,73.34360489744486
432,99.926235,72.70629518123089
433,100.134314,73.64927938535908
434,100.359633,73.00884514297255
435,100.593425,72.40546681063861
436,100.802658,72.40546681063861
437,101.066032,73.95670924720307
438,101.277113,72.40546681063861
439,101.487455,73.00884514297255
440,101.714964,72.40546681063861
441,101.936678,73.95670924720307
442,102.182619,72.40546681063861
443,102.412809,72.70629518123089
444,102.688118,72.70629518123089
445,102.994034,73.34360489744486
446,103.276953,73.64927938535908
447,103.534328,73.00884514297255
448,103.764818,73.34360489744486
449,103.977161,73.34360489744486
450,104.188319,71.77689026520319
451,104.516905,72.1063473573456
452,104.778562,74.26590756062393
453,104.997362,74.26590756062393
454,105.202719,72.40546681063861
455,105.4111,72.70629518123089
456,105.654221,71.48082062077474
457,105.867136,71.1864271071295
458,106.091106,73.95670924720307
459,106.331437,71.48082062077474
460,106.582515,72.40546681063861
461,106.883601,73.95670924720307
462,107.133154,72.074648433899
463,107.351017,72.70629518123089
464,107.567409,72.70629518123089
465,107.791479,72.70629518123089
466,108.061127,72.70629518123089
467,108.254309,72.40546681063861
468,108.446281,73.64927938535908
469,108.647056,72.70629518123089
470,108.876107,73.31312948318626
471,109.15061,72.70629518123089
472,109.401844,73.95670924720307
473,109.65374,73.00884514297255
474,109.899869,72.70629518123089
475,110.132323,72.40546681063861
476,110.409248,72.70629518123089
477,110.622383,72.70629518123089
478,110.822957,73.00884514297255
479,111.017674,72.70629518123089
480,111.215357,74.26590756062393
481,111.408408,73.00884514297255
482,111.659249,72.70629518123089
483,111.853487,73.00884514297255
484,112.055817,72.70629518123089
485,112.303672,73.95670924720307
486,112.554559,72.70629518123089
487,112.858759,72.70629518123089
488,113.182257,72.70629518123089
489,113.41257,72.70629518123089
490,113.618885,73.31312948318626
491,113.825596,73.31312948318626
492,114.079291,72.70629518123089
493,114.285168,73.31312948318626
494,114.513426,73.91038265317788
495,114.723934,73.95670924720307
496,114.91979,73.31312948318626
497,115.165037,71.15388919163357
498,115.358773,73.31312948318626
499,115.557149,71.77689026520319
500,115.732245,70.86083648940975
501,115.934123,73.31312948318626
502,116.229987,73.00884514297255
503,116.479902,73.00884514297255
504,116.710623,73.64927938535908
505,116.96627,73.00884514297255
506,117.209954,72.074648433899
507,117.462092,73.31312948318626
508,117.670375,73.95670924720307
509,117.888027,71.77689026520319
510,118.15564,72.40546681063861
511,118.400123,73.00884514297255
512,118.675963,71.77689026520319
513,118.884846,73.64927938535908
514,119.097084,74.57688752091835
515,119.323136,75.86654796473819
516,119.548983,74.57688752091835
517,119.802245,72.1063473573456
518,120.020032,73.95670924720307
519,120.260466,71.48082062077474
520,120.507931,73.95670924720307
521,120.760858,73.00884514297255
522,121.054333,72.70629518123089
523,121.30773,73.95670924720307
524,121.537096,73.31312948318626
525,121.760516,74.26590756062393
526,121.960364,72.70629518123089
527,122.222288,74.26590756062393
528,122.476171,73.64927938535908
529,122.69005,73.00884514297255
530,122.897919,74.26590756062393
531,123.104142,73.00884514297255
532,123.387527,74.26590756062393
533,123.603387,71.48082062077474
534,123.819841,72.70629518123089
535,124.024386,74.26590756062393
536,124.266986,72.70629518123089
537,124.584954,74.26590756062393
538,124.845473,72.70629518123089
539,125.083056,72.40546681063861
540,125.324902,73.31312948318626
541,125.573492,72.70629518123089
542,125.838034,74.26590756062393
543,126.05514,73.31312948318626
544,126.320339,73.00884514297255
545,126.587423,72.074648433899
546,126.800865,73.00884514297255
547,127.049481,72.70629518123089
548,127.26832,72.074648433899
549,127.469409,73.95670924720307
550,127.670477,72.70629518123089
551,127.891462,72.074648433899
552,128.197285,73.00884514297255
553,128.445496,73.00884514297255
554,128.697574,72.70629518123089
555,128.949905,74.26590756062393
556,129.177288,73.00884514297255
557,129.434689,72.70629518123089
558,129.635306,73.00884514297255
559,129.863799,73.31312948318626
560,130.061682,71.77689026520319
561,130.263984,73.00884514297255
562,130.515675,72.70629518123089
563,130.717543,72.074648433899
564,130.91906,73.00884514297255
565,131.126627,72.70629518123089
566,131.337288,73.61916110386555
567,131.609526,74.26590756062393
568,131.859428,72.70629518123089
569,132.103863,73.31312948318626
570,132.352431,74.55920540786919
571,132.686441,73.31312948318626
572,132.958426,73.00884514297255
573,133.206284,73.00884514297255
574,133.484893,73.00884514297255
575,133.841395,73.31312948318626
576,134.073511,73.31312948318626
577,134.357598,73.31312948318626
578,134.569145,73.31312948318626
579,134.771408,72.074648433899
580,135.040567,72.66181218692155
581,135.228194,72.66181218692155
582,135.4313,73.31312948318626
583,135.667769,72.70629518123089
584,135.921596,72.074648433899
585,136.227562,72.074648433899
586,136.506305,73.31312948318626
587,136.725402,72.074648433899
588,136.94374,73.31312948318626
589,137.163265,73.31312948318626
590,137.406796,73.31312948318626
591,137.610595,72.074648433899
592,137.80445,73.31312948318626
593,137.990412,72.37410763095637
594,138.238135,72.37410763095637
595,138.513963,72.36162829978488
596,138.744953,71.77689026520319
597,138.960739,73.31312948318626
598,139.210948,70.86083648940975
599,139.473537,72.074648433899
600,139.767136,71.15388919163357
601,139.999056,73.00884514297255
602,140.224716,73.31312948318626
603,140.421323,73.31312948318626
604,140.624193,73.61916110386555
605,140.872322,73.00884514297255
606,141.065379,73.31312948318626
607,141.250115,73.61916110386555
608,141.475658,73.61916110386555
609,141.725351,72.074648433899
610,142.020618,72.074648433899
611,142.269134,73.61916110386555
612,142.51164,72.37410763095637
613,142.732234,73.31312948318626
614,142.94026,73.31312948318626
615,143.205544,73.31312948318626
616,143.424314,73.31312948318626
617,143.647031,73.31312948318626
618,143.944956,73.00884514297255
619,144.134271,72.67528047224422
620,144.375737,73.31312948318626
621,144.570323,72.37410763095637
622,144.76069,72.074648433899
623,144.946722,73.31312948318626
624,145.153481,72.67528047224422
625,145.429158,72.70629518123089
626,145.687079,73.92695302288799
627,145.926121,71.44861027803357
