,time (s),surface tension (mN/m)
0,0.0,67.5778703017187
1,0.300885,69.13821393004
2,0.548232,68.70840446754386
3,0.802094,68.75454341737577
4,1.134058,68.75454341737577
5,1.381401,68.32869057343824
6,1.650879,67.57988865705865
7,1.920362,68.32869057343824
8,2.252326,67.95185526315515
9,2.521809,69.51636079964456
10,2.784774,69.51636079964456
11,3.042336,67.95185526315515
12,3.396086,69.51636079964456
13,3.645417,69.90428247668403
14,3.886632,69.90428247668403
15,4.127757,69.51535493055154
16,4.370997,68.32869057343824
17,4.713024,69.4739518136174
18,4.972293,69.51636079964456
19,5.234332,69.90428247668403
20,5.506647,70.29091037522085
21,5.858822,69.09000715667932
22,6.402079,69.09000715667932
23,6.64323,70.68315426600758
24,6.987792,69.4739518136174
25,7.247281,69.09000715667932
26,7.488536,69.09000715667932
27,7.729688,70.2523653681597
28,8.091266,70.68315426600758
29,8.338616,69.86083601856336
30,8.60809,70.29091037522085
31,8.871065,69.09000715667932
32,9.224994,69.86083601856336
33,9.485799,70.64358437631329
34,9.747073,71.47511620169924
35,10.010349,69.4788155886591
36,10.502874,71.47511620169924
37,10.77463,69.09000715667932
38,11.291152,71.47511620169924
39,11.623117,70.29091037522085
40,12.188713,71.07841517932863
41,12.450055,69.09000715667932
42,12.794094,69.4739518136174
43,13.054085,70.68315426600758
44,13.295395,69.09000715667932
45,13.538696,69.4739518136174
46,13.878247,68.70897315667362
47,14.11949,70.2523653681597
48,14.380731,69.86083601856336
49,14.639837,70.2523653681597
50,14.978314,69.4739518136174
51,15.241279,70.2523653681597
52,15.495141,71.07847745567102
53,15.75811,69.4739518136174
54,16.108268,69.86083601856336
55,16.379674,69.4739518136174
56,16.639134,71.47511620169924
57,16.902875,69.4739518136174
58,17.244518,69.4739518136174
59,17.509248,69.4788155886591
60,17.756592,69.4739518136174
61,18.027543,69.86411884386914
62,18.369308,70.64358437631329
63,18.648902,70.64358437631329
64,18.910315,69.4739518136174
65,19.151617,72.683459634057
66,19.495794,70.64358437631329
67,19.775764,69.05311134029192
68,20.017051,70.64358437631329
69,20.278276,70.64354037332143
70,20.662576,69.86083601856336
71,21.028372,70.68315426600758
72,21.297862,69.4739518136174
73,21.582957,69.86083601856336
74,21.936505,70.2523653681597
75,22.175932,69.4788155886591
76,22.459522,71.47672324461101
77,22.698992,67.87682774932432
78,23.032868,70.64358437631329
79,23.563763,70.64358437631329
80,23.827151,70.2523653681597
81,24.197526,71.43505845933696
82,24.470769,71.87480577417207
83,24.732117,70.64358437631329
84,25.031593,69.86411884386914
85,25.383668,69.05311134029192
86,25.63489,69.86083601856336
87,25.878341,70.64358437631329
88,26.137588,71.03780543332095
89,26.491458,70.64358437631329
90,27.022967,69.43606382642376
91,27.286704,69.86083601856336
92,27.647302,69.43606382642376
93,27.931052,70.2523653681597
94,28.191289,70.2523653681597
95,28.452715,70.2523653681597
96,28.786641,70.2523653681597
97,29.038183,71.03780543332095
98,29.300032,70.64358437631329
99,29.56138,71.43505845933696
100,29.883679,70.64358437631329
101,30.149694,70.64358437631329
102,30.419169,71.03780543332095
103,30.666514,70.64358437631329
104,31.020621,69.43606382642376
105,31.352585,70.21077297359811
106,31.637209,69.43606382642376
107,31.877919,71.03780543332095
108,32.211765,71.43505845933696
109,32.483602,70.64358437631329
110,32.722748,69.048297008762
111,33.005918,71.03780543332095
112,33.343404,69.43606382642376
113,33.882373,70.64358437631329
114,34.129718,69.82194135900531
115,34.715543,70.21843583709264
116,34.962888,71.43505845933696
117,35.200584,70.60866125122739
118,35.443733,73.09196544392742
119,35.793423,69.8311684274174
120,36.06528,68.6612563855481
121,36.306411,69.0207395704123
122,36.568439,77.85089943943319
123,36.942433,78.73305556637621
124,37.212575,76.06476340221518
125,37.476238,76.06476340221518
126,37.735766,72.2071411099163
127,38.059529,73.05853069346658
128,38.319036,71.40875301107243
129,38.580405,70.57842050519389
130,38.821724,71.80642142574153
131,39.18571,71.40875301107243
132,39.447285,71.40875301107243
133,39.708597,71.80642142574153
134,39.990703,70.60866125122739
135,40.34043,71.80642142574153
136,40.612053,72.65224947776935
137,40.87542,71.80642142574153
138,41.154912,70.18915736039241
139,41.488762,71.40875301107243
140,41.838452,70.18915736039241
141,42.162031,71.40875301107243
142,42.403275,71.80642142574153
143,42.737942,71.80642142574153
144,43.029512,71.40875301107243
145,43.289673,71.40875301107243
146,43.536465,70.18915736039241
147,43.899668,73.4679437528808
148,44.155052,71.80642142574153
149,44.414222,67.08179328009695
150,44.657963,67.44928250386488
151,44.897337,68.99292698693803
152,45.271104,70.18915736039241
153,45.56316,72.2071411099163
154,45.817017,69.0207395704123
155,46.079983,71.40875301107243
156,46.418469,72.2071411099163
157,46.703563,72.2071411099163
158,46.966539,72.23995417547073
159,47.237259,71.36589523466328
160,47.587181,71.80642142574153
161,47.838531,73.05853069346658
162,48.121908,72.2071411099163
163,48.381303,70.18915736039241
164,48.710675,70.57842050519389
165,48.96453,70.18915736039241
166,49.211873,71.80642142574153
167,49.465745,73.4679437528808
168,49.835458,73.4679437528808
169,50.108288,72.61094247601318
170,50.367921,72.2071411099163
171,50.609242,70.57842050519389
172,50.963546,72.61094247601318
173,51.212939,69.78763211738479
174,51.474358,72.2071411099163
175,51.751244,73.01785630257427
176,52.183447,70.1754734700063
177,52.531037,69.78763211738479
178,52.788557,72.61094247601318
179,53.051986,70.57842050519389
180,53.393768,72.2071411099163
181,53.655388,72.2071411099163
182,53.914724,72.61094247601318
183,54.158057,71.36589523466328
184,54.47791,71.80642142574153
185,54.719287,71.80642142574153
186,54.987195,72.2071411099163
187,55.234536,71.39810389573815
188,55.573012,71.80642142574153
189,56.113632,71.36589523466328
190,56.355105,71.36589523466328
191,56.689047,70.57842050519389
192,56.938424,71.00187403254188
193,57.201945,69.37398680322511
194,57.461284,70.97065662560819
195,57.815158,69.78763211738479
196,58.087907,70.97065662560819
197,58.341758,70.97065662560819
198,58.589101,72.61094247601318
199,58.949943,73.01785630257427
200,59.231695,70.97065662560819
201,59.4912,72.2071411099163
202,59.754588,70.97065662560819
203,60.096451,71.36589523466328
204,60.375897,70.1754734700063
205,60.64945,72.61094247601318
206,60.918931,70.14482574961656
207,61.282137,72.2071411099163
208,61.567238,70.56628367020473
209,61.836723,71.76416619917075
210,62.121407,71.76416619917075
211,62.475473,70.97065662560819
212,62.765008,70.96009225015214
213,63.086927,70.97065662560819
214,63.348131,72.2071411099163
215,63.681999,71.36589523466328
216,63.931484,70.56628367020473
217,64.193423,70.96009225015214
218,64.427988,70.57842050519389
219,64.782085,70.1754734700063
220,65.046334,70.56628367020473
221,65.309854,70.57842050519389
222,65.589427,68.9763480690321
223,65.93323,71.36589523466328
224,66.192567,70.56628367020473
225,66.456079,70.1754734700063
226,66.715486,71.36589523466328
227,67.089371,71.36589523466328
228,67.354376,70.56628367020473
229,67.601722,70.57842050519389
230,67.871204,71.76416619917075
231,68.20317,71.36589523466328
232,68.472642,73.01785630257427
233,68.757745,70.56628367020473
234,69.020708,71.36589523466328
235,69.421674,71.79738091248001
236,69.675532,72.2071411099163
237,69.907256,70.96009225015214
238,70.161114,73.01785630257427
239,70.5087,70.97065662560819
240,70.762556,70.97065662560819
241,71.009901,71.36589523466328
242,71.263763,73.01785630257427
243,71.59573,72.19973551645467
244,71.860125,73.01785630257427
245,72.384889,71.36589523466328
246,73.028912,71.76416619917075
247,73.42878,71.36589523466328
248,73.730557,71.76416619917075
249,74.046909,71.39810389573815
250,74.309876,71.76416619917075
251,74.579356,70.96009225015214
252,74.84883,73.42791373946964
253,75.207026,72.61094247601318
254,75.466913,70.1754734700063
255,75.73038,70.56628367020473
256,75.970185,71.79738091248001
257,76.293938,73.01785630257427
258,76.573689,71.35692909678978
259,76.847164,72.61094247601318
260,77.078887,70.97065662560819
261,77.417367,72.61094247601318
262,77.702474,70.57842050519389
263,77.965444,71.76416619917075
264,78.234926,71.76416619917075
265,78.589019,71.76416619917075
266,78.841772,71.76416619917075
267,79.103773,71.36589523466328
268,79.345017,71.36589523466328
269,79.684812,73.01785630257427
270,79.948264,71.39810389573815
271,80.209968,71.79738091248001
272,80.471701,70.56628367020473
273,80.804114,70.56628367020473
274,81.095809,72.19973551645467
275,81.355248,71.35692909678978
276,81.618961,71.36589523466328
277,81.958572,70.56628367020473
278,82.201857,70.56628367020473
279,82.461176,70.53466250739231
280,82.744603,71.36589523466328
281,83.084812,72.19973551645467
282,83.346167,71.76416619917075
283,83.629558,73.01785630257427
284,83.929734,70.13278369204376
285,84.35411,71.76416619917075
286,84.613723,74.258763520807
287,84.877236,73.42791373946964
288,85.118863,70.56628367020473
289,85.460708,74.25758593219646
290,85.700049,73.01785630257427
291,85.96344,70.56628367020473
292,86.222725,72.1654997447313
293,86.555589,70.14482574961656
294,86.867362,69.74436440140431
295,87.130711,69.74436440140431
296,87.410245,72.1654997447313
297,87.763912,72.1654997447313
298,88.013405,71.32331725447786
299,88.274628,71.35692909678978
300,88.51567,71.35692909678978
301,88.759122,72.1654997447313
302,89.111219,71.36589523466328
303,89.380726,70.14482574961656
304,89.642396,68.9763480690321
305,89.90387,71.32331725447786
306,90.247759,70.14482574961656
307,90.507222,72.1654997447313
308,90.748959,70.53466250739231
309,91.231356,73.841146313185
310,91.563432,70.14482574961656
311,91.834695,72.1654997447313
312,92.116086,73.42791373946964
313,92.377395,71.32331725447786
314,92.698755,70.53466250739231
315,92.977349,72.1654997447313
316,93.246827,70.92748311464503
317,93.516307,69.35889552801848
318,93.879515,71.76416619917075
319,94.155295,72.1654997447313
320,94.696555,72.1654997447313
321,95.050521,70.53466250739231
322,95.315317,71.76416619917075
323,95.578281,71.32331725447786
324,96.148484,71.76416619917075
325,96.417964,72.1654997447313
326,96.696555,71.76416619917075
327,96.966037,72.1654997447313
328,97.327171,69.74436440140431
329,97.616797,71.75682445685825
330,97.857887,70.14482574961656
331,98.099404,70.96009225015214
332,98.433064,70.13278369204376
333,98.674392,70.53466250739231
334,98.928251,70.92748311464503
335,99.19122,72.1654997447313
336,99.529697,71.35692909678978
337,99.827235,70.52418275045882
338,100.086646,75.99197281851532
339,100.330312,69.70136674807296
340,100.651974,68.5684690049826
341,100.913302,73.841146313185
342,101.172783,68.5684690049826
343,101.456127,74.25758593219646
344,101.818135,72.1654997447313
345,102.077484,69.32880127843075
346,102.338936,70.53466250739231
347,102.620694,72.56992646082213
348,102.968281,72.56992646082213
349,103.215628,71.35692909678978
350,103.453861,71.35692909678978
351,103.71683,70.13278369204376
352,104.055312,72.1654997447313
353,104.340417,70.13278369204376
354,104.587764,71.73576699698845
355,104.941859,71.35692909678978
356,105.305065,72.1654997447313
357,105.821903,72.1654997447313
358,106.075758,71.75682445685825
359,106.429848,72.56992646082213
360,106.692821,72.1654997447313
361,106.962298,70.92748311464503
362,107.222356,72.56992646082213
363,107.555759,70.13278369204376
364,108.069236,71.76416619917075
365,108.348768,71.32331725447786
366,108.713362,71.72219496657635
367,108.995123,72.1654997447313
368,109.2551,72.1654997447313
369,109.49831,72.15980894201036
370,109.841572,70.13278369204376
371,110.083043,72.56992646082213
372,110.34447,72.56992646082213
373,110.626009,70.13278369204376
374,111.224544,70.13278369204376
375,111.49403,71.76416619917075
376,112.079847,71.76416619917075
377,112.311577,71.35692909678978
378,112.558925,70.92748311464503
379,112.814372,72.1654997447313
380,113.07391,70.52418275045882
381,113.397365,70.52418275045882
382,113.651224,71.32331725447786
383,113.929817,71.75682445685825
384,114.183672,68.93221880028781
385,114.515632,71.75682445685825
386,114.77088,70.52418275045882
387,115.052757,72.56992646082213
388,115.413018,71.35692909678978
389,116.097218,72.56992646082213
390,116.338539,66.35274623006701
391,116.599839,70.53466250739231
392,116.924185,70.53466250739231
393,117.180283,71.72219496657635
394,117.427626,70.92748311464503
395,117.697105,70.92748311464503
396,118.051206,70.52418275045882
397,118.314172,72.1654997447313
398,118.850574,71.72219496657635
399,119.172387,71.75682445685825
400,119.431637,72.56992646082213
401,119.672852,71.32331725447786
402,119.960063,72.15980894201036
403,120.292028,71.72219496657635
404,120.577129,72.56992646082213
405,120.824474,72.5699259928479
406,121.093952,73.38818361299383
407,121.440308,73.01380106191684
408,121.963077,70.49117763241544
409,122.202261,73.42557472761594
410,122.546235,71.72219496657635
411,122.805685,70.11886671138808
412,123.069201,68.93221880028781
413,123.328789,70.10076326441191
414,123.683444,73.38818361299383
415,123.95292,72.9774773059675
416,124.216427,71.72219496657635
417,124.475771,71.32331725447786
418,124.809467,71.32331725447786
419,125.078916,71.72219496657635
420,125.30206,71.75682445685825
421,125.561506,71.32331725447786
422,125.935563,70.92748311464503
423,126.219955,71.32331725447786
424,126.498542,70.52418275045882
425,126.757857,69.31532673623155
426,127.117702,71.32331725447786
427,127.379022,70.52418275045882
428,127.690879,69.31532673623155
429,127.962326,71.32331725447786
430,128.296255,70.91859127975859
431,128.545601,71.32331725447786
432,128.786751,70.10076326441191
433,129.048448,69.71331419669696
434,129.390402,72.9774773059675
435,129.652017,72.56992646082213
436,129.893712,70.52418275045882
437,130.175243,71.72219496657635
438,130.518801,72.56992646082213
439,130.800435,71.72219496657635
440,131.060202,72.56992646082213
441,131.321799,71.72219496657635
442,131.645277,71.32331725447786
443,131.905112,70.91859127975859
444,132.166694,71.72219496657635
445,132.42341,71.72219496657635
446,132.755376,72.5659135340072
447,133.002722,70.91859127975859
448,133.272205,71.32331725447786
449,133.526075,70.91859127975859
450,133.894138,68.93221880028781
451,134.143514,70.49117763241544
452,134.407081,70.10076326441191
453,134.666445,71.32331725447786
454,135.020382,70.49117763241544
455,135.289587,70.49117763241544
456,135.550891,71.32331725447786
457,135.837936,72.52920307964237
458,136.185519,70.49117763241544
459,136.586485,73.39692749519294
460,136.840347,77.29889329861746
461,137.103314,72.9774773059675
462,137.438834,66.98589981082527
463,137.700368,71.32331725447786
464,137.961745,71.32331725447786
465,138.221355,70.49117763241544
466,138.56524,71.72219496657635
467,138.844936,70.91859127975859
468,139.117096,69.70136674807296
469,139.380068,72.12414665226423
470,140.019271,71.32331725447786
471,140.261321,71.32331725447786
472,140.520769,70.91859127975859
473,140.864492,69.31532673623155
474,141.126152,71.32331725447786
475,141.385513,70.49117763241544
476,141.64699,69.31532673623155
477,141.990882,69.31532673623155
478,142.252658,71.32331725447786
479,142.513946,70.09036800556088
480,142.793623,70.49117763241544
481,143.165956,73.80207709437143
482,143.417526,69.70136674807296
483,143.700942,71.72219496657635
484,143.980342,69.31532673623155
485,144.334222,72.56992646082213
486,144.583527,72.9774773059675
487,144.865027,70.09036800556088
488,145.11862,71.32331725447786
489,145.457089,70.91859127975859
490,145.727931,70.91859127975859
491,145.991496,70.8845868009892
492,146.232995,71.7165573564612
493,146.574708,72.53953532114768
494,147.236442,69.66895152066772
495,148.101143,68.12972135807823
496,148.345615,71.72219496657635
497,148.630718,71.31603934063838
498,148.986389,71.72219496657635
499,149.245881,71.31603934063838
500,149.50947,71.28102062480089
501,149.749069,71.69238184039872
502,150.073527,69.70136674807296
503,150.333125,71.31603934063838
504,150.61667,70.8845868009892
505,150.896053,70.49117763241544
506,151.244323,72.52920307964237
507,151.513798,70.09036800556088
508,151.776764,72.12414665226423
509,152.373085,69.70136674807296
510,152.632651,70.91859127975859
511,152.894101,73.35574003364269
512,153.135416,72.12414665226423
513,153.479252,71.29448941264023
514,153.740718,70.8845868009892
515,154.000026,73.80207709437143
516,154.261588,70.09036800556088
517,154.585229,70.8845868009892
518,154.887257,71.28102062480089
519,155.14876,70.8845868009892
520,155.43045,72.52920307964237
521,155.772773,72.93739538881155
522,156.032554,70.49117763241544
523,156.295991,71.28102062480089
524,156.53581,72.12414665226423
525,156.859443,70.48236002885959
526,157.100804,67.33674831861283
527,157.441545,73.34875509718125
528,157.773511,74.258763520807
529,158.11198,71.72219496657635
530,158.374958,75.95606670885475
531,158.628815,72.9368409162776
532,158.929544,69.28387851128988
533,159.261508,74.21918984764402
534,159.546606,72.12414665226423
535,159.809577,68.8883531811324
536,160.063436,71.28102062480089
537,160.417533,72.52920307964237
538,160.680504,71.28102062480089
539,160.9275,71.7165573564612
540,161.196983,72.93739538881155
541,161.551069,72.12017611842184
542,161.822018,72.97516959000009
543,162.103514,71.72219496657635
544,162.345165,71.68050931792922
545,162.668843,71.7165573564612
546,162.928533,70.48236002885959
547,163.18978,71.29448941264023
548,163.471211,70.48236002885959
549,163.815689,71.29448941264023
550,164.085982,72.52920307964237
551,164.348946,70.09036800556088
552,164.6028,71.68050931792922
553,164.969412,70.09036800556088
554,165.228766,70.48236002885959
555,165.490643,72.52692679079637
556,165.75406,72.12017611842184
557,166.103764,70.8845868009892
558,166.336981,72.52920307964237
559,166.596076,71.7165573564612
560,166.857516,71.28102062480089
561,167.214829,70.48236002885959
562,167.493416,73.35574003364269
563,167.778519,70.09036800556088
564,168.134292,69.66895152066772
565,168.456173,71.28102062480089
566,168.695515,70.8845868009892
567,168.957245,70.09036800556088
568,169.220697,71.28102062480089
569,169.565585,70.09036800556088
570,169.828556,72.93739538881155
571,170.066796,71.27543623551615
572,170.314139,70.48236002885959
573,170.668234,71.28102062480089
574,170.946826,71.28102062480089
575,171.448034,70.8845868009892
576,171.770893,71.31603934063838
577,172.03386,70.09036800556088
578,172.287723,71.28102062480089
579,172.57283,72.12414665226423
580,172.936033,71.28102062480089
581,173.211071,71.28102062480089
582,173.490604,72.08308345897072
583,173.754056,72.08308345897072
584,174.126117,68.8883531811324
585,174.377398,70.87737269351737
586,174.636752,72.12017611842184
587,174.88117,69.66895152066772
588,175.119416,71.69238184039872
589,175.471922,70.48236002885959
590,175.701142,69.66895152066772
591,175.984655,71.68050931792922
592,176.244149,74.21918984764402
593,176.576303,69.65864064037278
594,176.847779,71.28102062480089
595,177.091271,71.28102062480089
596,177.350721,72.09333339212253
597,177.705013,70.87737269351737
598,177.954218,71.7165573564612
599,178.195392,70.8845868009892
600,179.081902,71.28102062480089
601,179.348102,72.12017611842184
602,179.617579,72.52920307964237
603,179.896167,71.68050931792922
604,180.219021,71.28102062480089
605,180.497615,73.34875509718125
606,180.751475,72.08308345897072
607,180.977447,70.8845868009892
608,181.327291,71.68050931792922
609,181.578501,69.66895152066772
610,181.840115,71.68050931792922
611,182.123596,71.28102062480089
612,182.465469,71.25078673972016
613,182.745044,72.93739538881155
614,183.26775,72.12017611842184
615,183.591819,70.4479673800495
616,183.871348,70.05697137080632
617,184.134747,71.68050931792922
618,184.394344,70.48236002885959
619,184.718162,70.48236002885959
620,184.957647,71.68050931792922
621,185.225001,71.68050931792922
622,185.487967,72.52692679079637
623,186.105034,70.48236002885959
624,186.358892,71.68050931792922
