,time (s),surface tension (mN/m)
0,0.103593,73.19622099563432
1,0.349892,74.09718137180356
2,0.549008,73.49841872340251
3,0.744183,75.05224604402648
4,0.946102,73.49841872340251
5,1.188028,73.19622099563432
6,1.386434,73.83343403482155
7,1.582459,73.19622099563432
8,1.826958,72.89572915512225
9,2.078352,72.89572915512225
10,2.390791,73.83343403482155
11,2.621983,74.13873032672777
12,2.85063,73.48958192915683
13,3.078809,72.89572915512225
14,3.290469,72.26718265476866
15,3.548303,73.49841872340251
16,3.76888,73.79252175825657
17,3.979734,73.49841872340251
18,4.214121,74.13873032672777
19,4.420724,73.15578484137747
20,4.667089,73.79252175825657
21,4.86439,73.48958192915683
22,5.068427,72.26718265476866
23,5.247072,73.83343403482155
24,5.470646,72.26718265476866
25,5.756102,72.89572915512225
26,6.012716,72.89572915512225
27,6.252826,73.83343403482155
28,6.493337,72.59693074089445
29,6.736571,73.48958192915683
30,7.020312,74.09718137180356
31,7.233365,73.79252175825657
32,7.455695,72.26718265476866
33,7.68469,72.26718265476866
34,7.886958,73.79252175825657
35,8.124215,73.19622099563432
36,8.327083,72.89572915512225
37,8.514633,73.48958192915683
38,8.703216,72.89572915512225
39,8.889759,74.09718137180356
40,9.094072,72.26718265476866
41,9.38909,72.26718265476866
42,9.643057,72.26718265476866
43,9.907482,71.97140926213237
44,10.190546,72.86376181256817
45,10.492338,73.19622099563432
46,10.719438,73.49841872340251
47,10.92984,74.09718137180356
48,11.142382,73.19622099563432
49,11.371742,73.19622099563432
50,11.643811,72.55773196631364
51,11.855449,73.49841872340251
52,12.058864,72.85591490820252
53,12.25495,72.56462940649408
54,12.460904,73.19622099563432
55,12.702985,73.19622099563432
56,12.925921,74.13873032672777
57,13.167991,74.09718137180356
58,13.415974,73.19622099563432
59,13.645101,73.19622099563432
60,13.950882,73.48958192915683
61,14.189867,72.89572915512225
62,14.400727,73.15578484137747
63,14.608807,72.56462940649408
64,14.821816,74.74270934138632
65,15.06681,72.89572915512225
66,15.263749,72.89572915512225
67,15.465819,73.19622099563432
68,15.657362,73.18834932201781
69,15.857313,73.76063537321218
70,16.055432,72.59693074089445
71,16.286451,72.59693074089445
72,16.516918,74.40357344387174
73,16.757863,73.49841872340251
74,17.00026,73.49841872340251
75,17.342217,73.49841872340251
76,17.5946,72.89572915512225
77,17.832586,72.56462940649408
78,18.039801,74.44576573292967
79,18.263347,74.44576573292967
80,18.539758,71.97140926213237
81,18.75375,74.74270934138632
82,18.976738,73.49841872340251
83,19.178012,72.26718265476866
84,19.398223,75.05224604402648
85,19.643498,72.26718265476866
86,19.852728,73.79252175825657
87,20.054921,71.97140926213237
88,20.276258,75.3635489884922
89,20.521052,72.26718265476866
90,20.940011,73.19622099563432
91,21.185505,71.97140926213237
92,21.41807,71.97140926213237
93,21.629458,73.49841872340251
94,21.840064,73.19622099563432
95,22.095793,72.89572915512225
96,22.339678,72.26718265476866
97,22.550893,73.80233491008443
98,22.756809,72.26718265476866
99,22.944148,72.26718265476866
100,23.164837,72.89572915512225
101,23.375376,73.19622099563432
102,23.56561,73.19622099563432
103,23.765076,72.89572915512225
104,23.993708,72.89572915512225
105,24.271046,73.15578484137747
106,24.528356,73.49841872340251
107,24.798028,72.89572915512225
108,25.045855,73.19622099563432
109,25.341853,74.09718137180356
110,25.580857,74.09718137180356
111,25.806518,72.89572915512225
112,26.031253,73.49841872340251
113,26.26385,72.89572915512225
114,26.542507,73.49841872340251
115,26.745646,73.49841872340251
116,26.990787,73.19622099563432
117,27.189424,72.89572915512225
118,27.403719,73.19622099563432
119,27.644475,73.19622099563432
120,27.878462,72.26718265476866
121,28.103414,72.26718265476866
122,28.350953,73.80233491008443
123,28.598098,72.26718265476866
124,28.892296,71.97140926213237
125,29.142548,72.56462940649408
126,29.358777,74.09718137180356
127,29.564686,73.49841872340251
128,29.798566,72.89572915512225
129,30.075421,72.26718265476866
130,30.314269,72.26718265476866
131,30.507467,72.26718265476866
132,30.703718,73.49841872340251
133,30.900723,72.26718265476866
134,31.164857,73.49841872340251
135,31.387317,72.85591490820252
136,31.616158,71.97140926213237
137,31.87708,74.74270934138632
138,32.13996,72.26718265476866
139,32.444367,72.86376181256817
140,32.694425,73.19622099563432
141,32.931372,73.79252175825657
142,33.151972,73.19622099563432
143,33.361212,72.89572915512225
144,33.610443,74.13873032672777
145,33.825569,73.49841872340251
146,34.026858,73.19622099563432
147,34.217782,74.7545531083544
148,34.41022,72.85591490820252
149,34.600428,71.67729704123967
150,34.841733,73.19622099563432
151,35.034604,74.7545531083544
152,35.250247,72.2612237290798
153,35.557544,73.19622099563432
154,35.815976,74.13873032672777
155,36.109616,73.19622099563432
156,36.347894,72.26718265476866
157,36.5558,73.48958192915683
158,36.764523,73.45735416126271
159,36.976223,72.89572915512225
160,37.242547,72.85591490820252
161,37.48547,72.89572915512225
162,37.714994,72.89572915512225
163,37.916581,72.26718265476866
164,38.118385,73.49841872340251
165,38.370506,71.97140926213237
166,38.577732,74.44576573292967
167,38.775798,73.83343403482155
168,38.974205,72.26718265476866
169,39.198896,72.26718265476866
170,39.519669,73.19622099563432
171,39.773586,73.19622099563432
172,40.021374,72.26718265476866
173,40.26381,72.56462940649408
174,40.489146,73.49841872340251
175,40.748678,72.26718265476866
176,40.963164,73.49841872340251
177,41.191405,73.80233491008443
178,41.442542,73.19622099563432
179,41.649703,73.80233491008443
180,41.884998,73.49841872340251
181,42.086063,72.26718265476866
182,42.281249,71.97140926213237
183,42.495622,73.49841872340251
184,42.695747,73.19622099563432
185,42.957075,73.80233491008443
186,43.199731,72.86376181256817
187,43.445732,72.56462940649408
188,43.676422,73.49841872340251
189,43.916367,72.89572915512225
190,44.205681,72.56462940649408
191,44.440289,73.19622099563432
192,44.705298,73.19622099563432
193,44.929916,73.49841872340251
194,45.18561,72.26718265476866
195,45.511878,72.56462940649408
196,45.731643,73.19622099563432
197,45.937645,73.49841872340251
198,46.143559,72.56462940649408
199,46.350212,73.49841872340251
200,46.609612,73.49841872340251
201,46.813117,73.49841872340251
202,47.037565,72.56462940649408
203,47.287228,73.49841872340251
204,47.53765,72.26718265476866
205,47.838833,72.86376181256817
206,48.082249,72.26718265476866
207,48.333078,72.26718265476866
208,48.540754,73.49841872340251
209,48.75618,73.49841872340251
210,49.019679,71.06025143862165
211,49.213508,73.49841872340251
212,49.408487,73.49841872340251
213,49.609899,72.26718265476866
214,49.800229,71.97140926213237
215,50.009759,73.49841872340251
216,50.275168,73.49841872340251
217,50.471935,73.80233491008443
218,50.736754,73.49841872340251
219,50.984645,73.49841872340251
220,51.218565,72.56462940649408
221,51.52403,73.49841872340251
222,51.767755,73.49841872340251
223,51.987733,73.80233491008443
224,52.196874,72.56462940649408
225,52.405515,73.80233491008443
226,52.633417,72.86376181256817
227,52.823464,73.49841872340251
228,53.035943,73.49841872340251
229,53.229035,73.49841872340251
230,53.425031,72.56462940649408
231,53.618168,72.86376181256817
232,53.842788,72.56462940649408
233,54.053623,72.56462940649408
234,54.268709,73.49841872340251
235,54.515108,72.56462940649408
236,54.746529,73.49841872340251
237,55.048171,73.19622099563432
238,55.353052,73.16459227729197
239,55.559716,73.49841872340251
240,55.767502,72.26718265476866
241,55.964288,72.26718265476866
242,56.249143,72.56462940649408
243,56.462584,73.80233491008443
244,56.663106,72.56462940649408
245,56.862208,72.56462940649408
246,57.059385,73.19622099563432
247,57.294923,73.19622099563432
248,57.484608,72.56462940649408
249,57.685018,73.84660707596751
250,57.89513,72.26718265476866
251,58.112126,73.49841872340251
252,58.406498,73.80233491008443
253,58.650578,72.26718265476866
254,58.900497,72.89572915512225
255,59.151866,73.49841872340251
256,59.389811,72.26718265476866
257,59.653735,72.56462940649408
258,59.8796,73.19622099563432
259,60.135615,71.97140926213237
260,60.387991,73.49841872340251
261,60.60964,72.26718265476866
262,60.874426,73.49841872340251
263,61.089757,73.80233491008443
264,61.298649,72.56462940649408
265,61.506248,73.49841872340251
266,61.702786,74.13873032672777
267,62.01511,72.26718265476866
268,62.25976,73.19622099563432
269,62.498033,72.26718265476866
270,62.764201,72.89572915512225
271,63.100767,73.19622099563432
272,63.324105,73.80233491008443
273,63.518793,73.49841872340251
274,63.735602,73.49841872340251
275,63.958488,72.26718265476866
276,64.207334,72.56462940649408
277,64.39742,73.19622099563432
278,64.626685,74.10798223918283
279,64.827917,72.26718265476866
280,65.013584,72.86376181256817
281,65.252679,72.56462940649408
282,65.500377,73.49841872340251
283,65.748779,73.49841872340251
284,65.999516,72.56462940649408
285,66.240034,73.49841872340251
286,66.536436,72.56462940649408
287,66.796395,72.26718265476866
288,67.043917,73.49841872340251
289,67.255415,72.56462940649408
290,67.465286,72.26718265476866
291,67.718843,72.26718265476866
292,67.920094,72.56462940649408
293,68.112157,73.49841872340251
294,68.301752,72.56462940649408
295,68.50191,74.7545531083544
296,68.697504,73.49841872340251
297,68.942335,74.44576573292967
298,69.176879,72.26718265476866
299,69.415393,72.56462940649408
300,69.65513,72.55773196631364
301,69.897293,71.64417140352501
302,70.247378,73.19622099563432
303,70.466715,72.56462940649408
304,70.678942,73.45735416126271
305,70.871651,73.19622099563432
306,71.084153,73.80233491008443
307,71.341127,72.26718265476866
308,71.539004,72.89572915512225
309,71.732415,73.49841872340251
310,71.930386,72.26718265476866
311,72.306063,73.49841872340251
312,72.569047,73.80233491008443
313,72.808749,72.56462940649408
314,73.041223,73.19622099563432
315,73.289128,73.49841872340251
316,73.529806,72.26718265476866
317,73.833859,73.49841872340251
318,74.07308,73.49841872340251
319,74.299684,72.56462940649408
320,74.518845,73.19622099563432
321,74.733515,73.49841872340251
322,74.998595,73.19622099563432
323,75.192057,73.80233491008443
324,75.382369,73.19622099563432
325,75.574187,72.26718265476866
326,75.776005,73.49841872340251
327,75.98112,72.26718265476866
328,76.252568,74.7545531083544
329,76.461289,72.55773196631364
330,76.694029,71.35139066435269
331,76.962747,74.7545531083544
332,77.199574,74.10798223918283
333,77.488129,72.86376181256817
334,77.735248,74.10798223918283
335,77.943757,72.59693074089445
336,78.155409,73.80233491008443
337,78.363809,73.19622099563432
338,78.667832,72.56462940649408
339,78.919077,73.49841872340251
340,79.154115,72.26718265476866
341,79.375651,72.86376181256817
342,79.57785,73.48958192915683
343,79.831962,71.97140926213237
344,80.033356,72.56462940649408
345,80.221852,73.16459227729197
346,80.450614,72.27733552976999
347,80.703284,71.35139066435269
348,80.997776,71.97140926213237
349,81.237131,71.97140926213237
350,81.495309,73.80233491008443
351,81.755873,72.26718265476866
352,82.066831,72.56462940649408
353,82.307363,73.80233491008443
354,82.56578,73.49841872340251
355,82.746105,71.35139066435269
356,82.941285,72.56462940649408
357,83.191821,74.44576573292967
358,83.396916,72.85591490820252
359,83.592479,73.19622099563432
360,83.7741,73.80233491008443
361,83.992031,72.26718265476866
362,84.27834,72.56462940649408
363,84.524621,72.85591490820252
364,84.774038,73.49841872340251
365,85.037906,72.85591490820252
366,85.386206,73.49841872340251
367,85.619425,73.80233491008443
368,85.844713,75.3635489884922
369,86.05748,72.26718265476866
370,86.277072,72.56462940649408
371,86.534158,73.15578484137747
372,86.756229,73.15578484137747
373,86.971035,73.49841872340251
374,87.174527,72.56462940649408
375,87.401848,72.26718265476866
376,87.637014,73.15578484137747
377,87.808021,73.80233491008443
378,88.03161,73.49841872340251
379,88.281813,72.85591490820252
380,88.512566,73.19622099563432
381,88.81015,73.15578484137747
382,89.085372,72.26718265476866
383,89.305509,72.26718265476866
384,89.488411,73.19622099563432
385,89.690832,73.80233491008443
386,89.991933,72.86376181256817
387,90.19927,72.86376181256817
388,90.394898,72.86376181256817
389,90.595956,72.55773196631364
390,90.790906,72.55773196631364
391,90.973126,72.85591490820252
392,91.247732,72.26718265476866
393,91.467325,75.05224604402648
394,91.76906,72.56462940649408
395,92.020626,73.15578484137747
396,92.31966,72.56462940649408
397,92.590805,72.56462940649408
398,92.83962,71.35139066435269
399,93.053122,73.49841872340251
400,93.247698,72.26718265476866
401,93.483337,72.2278282298509
402,93.678431,73.79252175825657
403,93.863719,74.44576573292967
404,94.062415,73.15578484137747
405,94.261382,74.09718137180356
406,94.459588,72.56462940649408
407,94.678952,74.44576573292967
408,94.872388,73.80233491008443
409,95.098552,73.49841872340251
410,95.341864,72.56462940649408
411,95.572186,73.19622099563432
412,95.868813,73.76063537321218
413,96.183146,72.85591490820252
414,96.393583,73.80233491008443
415,96.605078,71.64417140352501
416,96.822759,73.15578484137747
417,97.127745,72.26718265476866
418,97.397417,74.10798223918283
419,97.636466,73.45735416126271
420,97.842226,73.49841872340251
421,98.039383,74.40357344387174
422,98.320315,74.7545531083544
423,98.532345,71.64417140352501
424,98.727448,73.49841872340251
425,98.958307,72.85591490820252
426,99.204374,74.10798223918283
427,99.499347,73.49841872340251
428,99.745921,74.40357344387174
429,99.988134,72.86376181256817
430,100.206872,73.49841872340251
431,100.417487,73.45735416126271
432,100.667525,73.49841872340251
433,100.896178,72.56462940649408
434,101.113507,74.40357344387174
435,101.318078,73.45735416126271
436,101.518269,73.79252175825657
437,101.755246,74.09718137180356
438,101.956471,72.86376181256817
439,102.187412,73.80233491008443
440,102.387234,72.56462940649408
441,102.591196,72.86376181256817
442,102.848802,74.40357344387174
443,103.130751,72.86376181256817
444,103.360164,73.49841872340251
445,103.5897,72.86376181256817
446,103.840363,73.45735416126271
447,104.126557,73.80233491008443
448,104.385238,72.56462940649408
449,104.590802,73.79252175825657
450,104.823619,73.49841872340251
451,105.081525,72.56462940649408
452,105.373062,72.56462940649408
453,105.578436,73.49841872340251
454,105.783817,72.56462940649408
455,106.01067,73.45735416126271
456,106.218667,74.10798223918283
457,106.45619,73.80233491008443
458,106.669336,73.45735416126271
459,106.933237,73.49841872340251
460,107.19239,72.56462940649408
461,107.43177,73.45735416126271
462,107.723814,73.45735416126271
463,107.975008,72.86376181256817
464,108.193653,73.15578484137747
465,108.398958,73.49841872340251
466,108.612374,73.45735416126271
467,108.900374,72.86376181256817
468,109.106782,73.49841872340251
469,109.311302,72.86376181256817
470,109.51591,72.56462940649408
471,109.712083,72.86376181256817
472,109.945536,74.71171076129133
473,110.15796,72.56462940649408
474,110.396447,72.56462940649408
475,110.648409,73.46713331514853
476,110.880084,73.80233491008443
477,111.19131,72.86376181256817
478,111.442292,72.2278282298509
479,111.69744,73.16459227729197
480,111.923863,72.86376181256817
481,112.169577,73.80233491008443
482,112.427212,72.56462940649408
483,112.632335,73.45735416126271
484,112.842868,72.86376181256817
485,113.033321,72.56462940649408
486,113.233699,74.40357344387174
487,113.483635,74.09718137180356
488,113.672928,72.86376181256817
489,113.906746,72.86376181256817
490,114.156701,72.86376181256817
491,114.407437,73.76063537321218
492,114.70078,72.56462940649408
493,114.95107,72.56462940649408
494,115.180011,72.86376181256817
495,115.393006,73.49841872340251
496,115.594233,73.19622099563432
497,115.839853,72.56462940649408
498,116.053819,72.82317330662774
499,116.24736,71.93266232139423
500,116.439181,73.45735416126271
501,116.637338,73.45735416126271
502,116.831727,71.93860568168881
503,117.062763,73.15578484137747
504,117.266132,74.09718137180356
505,117.497061,74.10798223918283
506,117.768346,71.64417140352501
507,118.020231,73.80233491008443
508,118.313486,73.80233491008443
509,118.563889,74.10798223918283
510,118.822452,71.93860568168881
511,119.044029,71.64417140352501
512,119.261528,73.80233491008443
513,119.502729,73.80233491008443
514,119.693877,71.64417140352501
515,119.883636,72.2278282298509
516,120.084992,73.80233491008443
517,120.294645,72.56462940649408
518,120.487919,74.10798223918283
519,120.734595,72.86376181256817
520,120.941728,73.15578484137747
521,121.157217,72.86376181256817
522,121.40307,72.26718265476866
523,121.651983,73.80233491008443
524,121.945864,73.45735416126271
525,122.197417,73.49841872340251
526,122.410392,72.56462940649408
527,122.626287,72.86376181256817
528,122.842499,74.10798223918283
529,123.103868,71.64417140352501
530,123.354332,73.80233491008443
531,123.632516,72.86376181256817
532,123.830332,74.71171076129133
533,124.030488,72.56462940649408
534,124.282829,73.45735416126271
535,124.512571,73.45735416126271
536,124.702989,73.16459227729197
537,124.894396,73.45735416126271
538,125.12037,74.10798223918283
539,125.392722,72.86376181256817
540,125.652183,72.86376181256817
541,125.912084,73.16459227729197
542,126.159942,73.77139755195756
543,126.445975,73.45735416126271
544,126.66689,72.23470563070832
545,126.875922,74.10798223918283
546,127.129641,72.23470563070832
547,127.386419,73.15578484137747
548,127.643163,73.16459227729197
549,127.842111,71.64417140352501
550,128.074448,71.93860568168881
551,128.306153,72.56462940649408
552,128.524405,71.93860568168881
553,128.765814,72.82317330662774
554,129.002022,72.82317330662774
555,129.244985,71.93860568168881
556,129.505272,74.10798223918283
557,129.757813,72.23470563070832
558,130.045579,72.23470563070832
559,130.295736,73.16459227729197
560,130.537894,72.86376181256817
561,130.755526,72.23470563070832
562,130.986832,72.86376181256817
563,131.227239,72.86376181256817
564,131.431718,73.76063537321218
565,131.618955,73.46713331514853
566,131.8185,72.86376181256817
567,132.013658,73.16459227729197
568,132.204504,73.16459227729197
569,132.444271,72.86376181256817
570,132.668487,72.86376181256817
571,132.919269,73.46713331514853
572,133.16052,73.76063537321218
573,133.409238,72.23470563070832
574,133.70871,73.16459227729197
575,134.038755,73.45735416126271
576,134.263258,73.76063537321218
577,134.4762,73.76063537321218
578,134.693462,73.46713331514853
579,134.971996,72.82317330662774
580,135.189237,74.06564109365951
581,135.399711,72.56462940649408
582,135.606416,73.16459227729197
583,135.811905,73.46713331514853
584,136.058798,72.86376181256817
585,136.253026,72.86376181256817
586,136.479099,73.46713331514853
587,136.732218,73.45735416126271
588,137.000955,72.5246611480295
589,137.292534,72.86376181256817
590,137.544841,72.53248348987083
591,137.784238,72.23470563070832
592,138.002167,72.86376181256817
593,138.216971,73.16459227729197
594,138.460856,72.86376181256817
595,138.704444,73.16459227729197
596,138.905712,73.76063537321218
597,139.0993,73.16459227729197
598,139.29426,72.86376181256817
599,139.515443,72.53248348987083
600,139.727923,73.16459227729197
601,139.949235,73.12337704464157
602,140.137644,73.76063537321218
603,140.348673,72.53248348987083
604,140.651132,73.16459227729197
605,140.927985,74.06564109365951
606,141.200149,73.16459227729197
607,141.450646,72.56462940649408
608,141.756513,72.86376181256817
609,141.984009,72.86376181256817
610,142.201274,73.16459227729197
611,142.413994,73.16459227729197
612,142.662746,73.76063537321218
613,142.964611,73.46713331514853
614,143.18579,73.16459227729197
615,143.391649,72.86376181256817
616,143.619842,72.86376181256817
617,143.808082,73.46713331514853
618,144.043592,73.16459227729197
619,144.310193,73.16459227729197
620,144.560142,73.76063537321218
621,144.791586,72.86376181256817
622,145.041914,73.16459227729197
623,145.324779,73.46713331514853
624,145.571523,72.53248348987083
