,time (s),surface tension (mN/m)
0,0.0,41.432231773469454
1,0.227757,41.432231773469454
2,0.468145,41.432231773469454
3,0.709825,41.62294935429348
4,0.956077,41.432231773469454
5,1.235942,41.017447316594
6,1.505903,41.017447316594
7,1.729981,41.432231773469454
8,1.955839,41.017447316594
9,2.190787,41.017447316594
10,2.482077,41.62294935429348
11,2.727545,41.017447316594
12,2.962775,41.017447316594
13,3.196617,41.017447316594
14,3.422439,41.017447316594
15,3.731087,41.017447316594
16,3.968192,41.62294935429348
17,4.196621,41.432231773469454
18,4.445058,41.017447316594
19,4.673801,41.62294935429348
20,4.963509,41.62294935429348
21,5.220727,41.017447316594
22,5.43757,41.62294935429348
23,5.679528,40.82933268778356
24,5.908047,41.432231773469454
25,6.195138,41.62294935429348
26,6.431789,41.017447316594
27,6.657448,41.017447316594
28,6.894808,41.432231773469454
29,7.113077,41.20595185572897
30,7.427626,40.82933268778356
31,7.661606,41.432231773469454
32,7.909692,41.432231773469454
33,8.12418,41.017447316594
34,8.362567,41.62294935429348
35,8.673996,40.82933268778356
36,8.895014,41.20595185572897
37,9.163517,41.62294935429348
38,9.401657,41.017447316594
39,9.652391,41.017447316594
40,9.968409,41.62294935429348
41,10.293923,41.432231773469454
42,10.529812,41.432231773469454
43,10.773029,41.432231773469454
44,11.072728,40.82933268778356
45,11.316793,41.432231773469454
46,11.552688,41.62294935429348
47,11.76616,41.20595185572897
48,12.005186,40.82933268778356
49,12.272612,41.20595185572897
50,12.501316,41.432231773469454
51,12.725099,41.017447316594
52,12.965034,41.20595185572897
53,13.206378,41.017447316594
54,13.488108,41.017447316594
55,13.762546,41.20595185572897
56,13.992698,41.20595185572897
57,14.217877,41.62294935429348
58,14.452784,41.017447316594
59,14.747218,41.017447316594
60,14.994613,41.017447316594
61,15.216596,41.017447316594
62,15.437929,41.017447316594
63,15.666,41.017447316594
64,15.947045,41.017447316594
65,16.201516,41.017447316594
66,16.435725,41.20595185572897
67,16.658801,41.017447316594
68,16.882908,41.017447316594
69,17.163815,41.017447316594
70,17.414586,41.017447316594
71,17.661375,41.017447316594
72,17.890864,41.017447316594
73,18.100805,41.017447316594
74,18.394128,41.017447316594
75,18.631958,41.017447316594
76,18.853118,41.017447316594
77,19.09966,41.20595185572897
78,19.330308,41.017447316594
79,19.630047,41.017447316594
80,19.921695,40.605905835495776
81,20.166607,41.017447316594
82,20.395873,41.017447316594
83,20.763915,41.017447316594
84,20.986332,40.605905835495776
85,21.214957,40.605905835495776
86,21.442627,41.20595185572897
87,21.665224,41.20595185572897
88,21.979377,41.017447316594
89,22.240209,41.20595185572897
90,22.462529,41.20595185572897
91,22.698047,41.017447316594
92,22.949546,41.017447316594
93,23.241883,41.017447316594
94,23.466008,41.017447316594
95,23.696163,41.20595185572897
96,23.906144,41.20595185572897
97,24.133608,41.20595185572897
98,24.43356,41.20595185572897
99,24.68511,40.605905835495776
100,24.933762,41.017447316594
101,25.157853,41.017447316594
102,25.390203,41.20595185572897
103,25.674618,41.20595185572897
104,25.910645,41.20595185572897
105,26.132602,41.20595185572897
106,26.36825,41.20595185572897
107,26.604836,41.20595185572897
108,26.888449,41.20595185572897
109,27.128,40.82933268778356
110,27.350805,40.605905835495776
111,27.58432,40.605905835495776
112,27.814022,40.605905835495776
113,28.088737,41.017447316594
114,28.321281,41.017447316594
115,28.551452,40.605905835495776
116,28.797812,41.017447316594
117,29.021148,41.20595185572897
118,29.337824,40.605905835495776
119,29.562798,40.605905835495776
120,29.819852,41.20595185572897
121,30.047357,41.20595185572897
122,30.278515,41.20595185572897
123,30.569021,41.017447316594
124,30.822601,40.605905835495776
125,31.120521,40.605905835495776
126,31.401283,41.017447316594
127,31.69162,41.20595185572897
128,31.947176,41.20595185572897
129,32.176239,40.605905835495776
130,32.409201,41.20595185572897
131,32.638168,41.017447316594
132,32.941159,41.017447316594
133,33.18219,41.017447316594
134,33.39964,41.20595185572897
135,33.639824,41.017447316594
136,33.874585,41.20595185572897
137,34.156613,41.017447316594
138,34.410543,41.20595185572897
139,34.660607,41.54164050443137
140,34.917454,41.017447316594
141,35.266864,41.39563863786264
142,35.51953,41.20595185572897
143,35.749291,41.20595185572897
144,35.999283,41.017447316594
145,36.227324,40.605905835495776
146,36.51609,41.20595185572897
147,36.749066,40.605905835495776
148,36.967762,41.20595185572897
149,37.208977,41.017447316594
150,37.439889,41.20595185572897
151,37.734773,41.017447316594
152,37.958065,41.017447316594
153,38.202013,41.017447316594
154,38.428627,41.20595185572897
155,38.653284,41.017447316594
156,38.951209,41.20595185572897
157,39.197558,41.20595185572897
158,39.424855,41.20595185572897
159,39.651565,41.39563863786264
160,39.881456,41.017447316594
161,40.172432,41.017447316594
162,40.402336,40.605905835495776
163,40.662794,41.20595185572897
164,40.889817,41.017447316594
165,41.118887,40.793149576370176
166,41.417648,41.20595185572897
167,41.743399,40.793149576370176
168,41.970404,41.39563863786264
169,42.206541,41.017447316594
170,42.493616,41.017447316594
171,42.719329,40.793149576370176
172,42.952019,41.39563863786264
173,43.178061,40.605905835495776
174,43.429147,41.20595185572897
175,43.72223,40.793149576370176
176,43.955531,41.017447316594
177,44.184009,40.605905835495776
178,44.436284,40.793149576370176
179,44.681444,40.605905835495776
180,44.977723,41.20595185572897
181,45.221647,41.39563863786264
182,45.450058,41.54164050443137
183,45.693602,40.605905835495776
184,45.919821,41.20595185572897
185,46.229129,40.605905835495776
186,46.483033,40.605905835495776
187,46.733814,40.605905835495776
188,46.966884,40.605905835495776
189,47.189696,41.20595185572897
190,47.506724,41.73287259001523
191,47.734978,40.793149576370176
192,47.973067,40.605905835495776
193,48.193555,40.793149576370176
194,48.412573,40.793149576370176
195,48.714709,40.793149576370176
196,48.945307,41.017447316594
197,49.166436,41.017447316594
198,49.394135,40.793149576370176
199,49.627378,40.93670614577569
200,49.961986,40.793149576370176
201,50.200553,40.793149576370176
202,50.434641,41.017447316594
203,50.660105,40.605905835495776
204,50.908991,40.605905835495776
205,51.206612,41.12547528760605
206,51.428333,40.93670614577569
207,51.647736,40.793149576370176
208,51.95067,40.605905835495776
209,52.329175,41.12547528760605
210,52.556285,40.793149576370176
211,52.791796,41.39563863786264
212,53.020969,41.12547528760605
213,53.255295,40.605905835495776
214,53.545899,40.793149576370176
215,53.814451,40.605905835495776
216,54.047094,41.017447316594
217,54.271907,40.793149576370176
218,54.494745,41.20595185572897
219,54.805458,40.93670614577569
220,55.028122,40.605905835495776
221,55.275117,40.793149576370176
222,55.49638,40.98063432685397
223,55.723589,41.39563863786264
224,56.037326,41.017447316594
225,56.275353,40.605905835495776
226,56.525976,40.793149576370176
227,56.739005,40.605905835495776
228,56.964397,40.605905835495776
229,57.271923,40.793149576370176
230,57.510683,40.793149576370176
231,57.742834,41.12547528760605
232,57.946359,40.605905835495776
233,58.168144,40.605905835495776
234,58.517871,40.793149576370176
235,58.759745,40.793149576370176
236,58.994701,40.605905835495776
237,59.227243,41.20595185572897
238,59.474936,40.605905835495776
239,59.78397,40.793149576370176
240,60.013356,40.793149576370176
241,60.243931,41.35160029311395
242,60.475404,41.73287259001523
243,60.702049,40.93670614577569
244,60.989177,40.605905835495776
245,61.230425,40.605905835495776
246,61.454892,41.20595185572897
247,61.677767,40.793149576370176
248,61.893331,40.793149576370176
249,62.19681,40.98063432685397
250,62.521405,41.20595185572897
