,time (s),surface tension (mN/m)
0,0.010041,57.43519234897667
1,0.290041,57.02745678616185
2,0.55438,59.526304724944104
3,0.811991,57.0527602950948
4,1.176012,59.526304724944104
5,1.435378,60.60003111412379
6,1.699066,57.36382931860731
7,1.958511,58.780792007196375
8,2.302518,59.56044161641661
9,2.561814,58.780792007196375
10,2.825313,58.780792007196375
11,3.095902,57.77544923877715
12,3.443494,58.780792007196375
13,3.728599,57.702928954191165
14,3.982465,58.43385360284252
15,4.267562,56.71748146998562
16,4.599536,59.13056413832304
17,4.861415,59.88128918667869
18,5.143491,57.36382931860731
19,5.403168,57.36382931860731
20,5.747105,57.36382931860731
21,6.006749,57.702928954191165
22,6.291173,58.08971917294327
23,6.551566,58.08971917294327
24,6.91587,58.11847850920599
25,7.458876,58.43385360284252
26,7.718218,58.11847850920599
27,8.072268,58.780792007196375
28,8.34214,59.13056413832304
29,8.585373,60.23918760978553
30,8.824607,57.36382931860731
31,9.067888,58.04478450675556
32,9.410096,56.71748146998562
33,9.669891,57.702928954191165
34,9.951535,57.77544923877715
35,10.313532,58.780792007196375
36,10.697804,56.71748146998562
37,10.977489,57.36382931860731
38,11.241119,59.88128918667869
39,11.502681,59.13056413832304
40,11.87299,57.0527602950948
41,12.144483,57.02745678616185
42,12.388152,57.702928954191165
43,12.647685,59.13056413832304
44,12.982693,57.36382931860731
45,13.252171,57.39076398484662
46,13.520852,57.77544923877715
47,13.784195,58.464309577346675
48,14.166265,56.71748146998562
49,14.445814,57.36382931860731
50,14.729368,58.04478450675556
51,14.989042,58.464309577346675
52,15.312959,57.36382931860731
53,15.574432,56.71748146998562
54,15.816339,58.780792007196375
55,16.056088,56.71748146998562
56,16.420131,59.13056413832304
57,16.681669,58.04478450675556
58,16.963343,58.780792007196375
59,17.224614,57.0527602950948
60,17.58648,58.43385360284252
61,17.846419,57.36382931860731
62,18.130064,57.0527602950948
63,18.389393,57.0527602950948
64,18.721461,59.48320012955453
65,19.013262,56.64715743494034
66,19.276921,57.39076398484662
67,19.556752,58.464309577346675
68,19.911125,58.04478450675556
69,20.180826,58.780792007196375
70,20.442793,57.0527602950948
71,20.706485,56.64715743494034
72,21.108712,57.0527602950948
73,21.3909,56.64715743494034
74,21.630695,58.11847850920599
75,21.914243,58.464309577346675
76,22.2354,58.812972237003436
77,22.520508,58.04478450675556
78,22.795804,57.702928954191165
79,23.059255,58.11847850920599
80,23.42133,57.702928954191165
81,23.700816,57.39076398484662
82,23.982258,59.13056413832304
83,24.243684,57.73152139160688
84,24.587438,57.39076398484662
85,24.847067,57.702928954191165
86,25.108382,55.68115725526647
87,25.370663,56.339262389417115
88,25.756965,58.464309577346675
89,26.016542,58.11847850920599
90,26.546314,56.64715743494034
91,27.140513,58.04478450675556
92,27.404207,57.73152139160688
93,27.664203,58.11847850920599
94,28.016225,56.98130008387299
95,28.287862,57.39076398484662
96,28.552361,57.0527602950948
97,28.811899,58.464309577346675
98,29.182455,57.702928954191165
99,29.453798,56.339262389417115
100,29.717648,56.339262389417115
101,29.997261,57.39076398484662
102,30.351219,57.36382931860731
103,30.62061,56.315695236642696
104,30.882453,57.0527602950948
105,31.143932,58.812972237003436
106,31.546364,57.0527602950948
107,31.839333,57.0527602950948
108,32.108809,56.339262389417115
109,32.359993,57.702928954191165
110,32.691807,57.702928954191165
111,32.943218,57.39076398484662
112,33.182169,57.39076398484662
113,33.457395,56.64715743494034
114,33.79709,59.838730500996896
115,34.058609,59.48320012955453
116,34.320441,58.464309577346675
117,34.581872,57.39076398484662
118,34.908697,56.64715743494034
119,35.171664,59.13056413832304
120,35.456765,57.39076398484662
121,35.725794,57.0527602950948
122,36.089571,57.39076398484662
123,36.368925,56.339262389417115
124,36.612364,57.702928954191165
125,36.872008,58.73688046033678
126,37.215868,58.07506173639093
127,37.495356,57.39076398484662
128,37.738714,57.73152139160688
129,38.021174,56.339262389417115
130,38.359648,57.0527602950948
131,38.660372,57.39076398484662
132,38.940439,57.0527602950948
133,39.224296,57.39076398484662
134,39.576659,57.39076398484662
135,40.067463,57.0527602950948
136,40.310069,56.339262389417115
137,40.573036,56.672318273016245
138,40.913419,57.39076398484662
139,41.152584,56.339262389417115
140,41.416507,58.464309577346675
141,41.696178,58.389425157465546
142,42.091239,56.339262389417115
143,42.421171,57.39076398484662
144,42.662613,56.339262389417115
145,42.924132,57.39076398484662
146,43.258189,58.464309577346675
147,43.548093,56.672318273016245
148,43.789317,57.73152139160688
149,44.030492,58.07506173639093
150,44.384476,57.39076398484662
151,44.67473,56.339262389417115
152,44.937918,56.672318273016245
153,45.1993,57.39076398484662
154,45.541176,57.39076398484662
155,46.043899,56.672318273016245
156,46.285038,58.04478450675556
157,46.526249,56.339262389417115
158,46.870115,56.339262389417115
159,47.129715,56.00888469803412
160,47.391206,57.008080647855635
161,47.634657,57.0527602950948
162,47.976712,57.39076398484662
163,48.256925,56.672318273016245
164,48.518446,57.008080647855635
165,48.759664,58.07506173639093
166,49.083603,57.008080647855635
167,49.363576,56.339262389417115
168,49.624984,56.672318273016245
169,49.866345,58.389425157465546
170,50.210548,59.16449666439655
171,50.470036,58.07506173639093
172,50.713489,56.672318273016245
173,50.967344,56.672318273016245
174,51.330552,56.672318273016245
175,51.615655,57.73152139160688
176,51.885141,57.39076398484662
177,52.148109,57.39076398484662
178,52.486585,57.39076398484662
179,52.802928,56.339262389417115
180,53.089246,56.672318273016245
181,53.348876,56.339262389417115
182,53.693042,58.04478450675556
183,53.952485,58.07506173639093
184,54.197228,57.73152139160688
185,54.455014,56.339262389417115
186,54.82932,58.07506173639093
187,55.118814,55.309277184303326
188,55.380218,56.672318273016245
189,55.661675,58.07506173639093
190,55.995855,56.672318273016245
191,56.245532,56.672318273016245
192,56.488862,59.16449666439655
193,56.748289,58.07506173639093
194,57.102542,56.98130008387299
195,57.372388,59.16449666439655
196,57.63496,58.07506173639093
197,57.896535,57.008080647855635
198,58.250592,58.73688046033678
199,58.52016,55.96301400018989
200,58.761531,58.04478450675556
201,59.002803,57.31815144548446
202,59.243971,56.672318273016245
203,59.597794,56.672318273016245
204,59.847237,56.672318273016245
205,60.108538,55.309277184303326
206,60.370167,56.00888469803412
207,60.714754,57.39076398484662
208,60.974703,57.73152139160688
209,61.216127,57.39076398484662
210,61.477564,56.672318273016245
211,61.801573,56.672318273016245
212,62.080998,56.339262389417115
213,62.322452,56.672318273016245
214,62.563809,56.98130008387299
215,62.918375,56.26883945162024
216,63.248227,57.73152139160688
217,63.592303,56.672318273016245
218,63.856163,55.939577250356386
219,64.226308,58.07506173639093
220,64.497641,57.31815144548446
221,64.781323,59.16449666439655
222,65.041055,57.73152139160688
223,65.39299,56.00888469803412
224,65.644333,56.339262389417115
225,65.887606,56.672318273016245
226,66.147025,58.00009515768518
227,66.390734,57.31815144548446
228,66.730759,56.672318273016245
229,66.994651,56.98130008387299
230,67.274182,56.339262389417115
231,67.531762,54.98632988850626
232,67.878147,56.98130008387299
233,68.1577,56.672318273016245
234,68.398968,57.31815144548446
235,68.640229,58.42141461442414
236,68.984401,56.98130008387299
237,69.224322,57.008080647855635
238,69.465681,57.008080647855635
239,69.708885,56.672318273016245
240,69.965331,55.63482941853835
241,70.31942,56.339262389417115
242,70.598015,56.26883945162024
243,70.867499,58.07506173639093
244,71.133895,58.73688046033678
245,71.474428,57.73152139160688
246,71.717947,56.26883945162024
247,71.998125,56.672318273016245
248,72.239593,56.672318273016245
249,72.563608,57.73152139160688
250,72.825335,56.672318273016245
251,73.085044,57.73152139160688
252,73.328698,56.672318273016245
253,73.671227,56.672318273016245
254,74.001584,57.65774014129229
255,74.273082,55.309277184303326
256,74.556901,58.07506173639093
257,74.8973,56.26883945162024
258,75.16087,57.73152139160688
259,75.420647,56.60076399831965
260,75.684302,56.672318273016245
261,76.026441,56.98130008387299
262,76.287981,56.98130008387299
263,76.547742,56.672318273016245
264,76.811882,56.339262389417115
265,77.173941,57.31815144548446
266,77.435207,57.31815144548446
267,77.714751,58.07506173639093
268,77.976172,57.73152139160688
269,78.319947,56.293858686073115
270,78.579541,56.26883945162024
271,78.841076,56.339262389417115
272,79.082423,57.73152139160688
273,79.404515,56.672318273016245
274,79.648279,56.26883945162024
275,79.907587,57.65774014129229
276,80.186184,57.65774014129229
277,80.524659,57.008080647855635
278,80.772004,57.65774014129229
279,81.041482,57.34657817371941
280,81.288827,57.73152139160688
281,81.611679,59.44035513671974
282,81.864791,58.42141461442414
283,82.104275,55.96301400018989
284,82.367621,58.07506173639093
285,82.707517,56.26883945162024
286,82.964883,58.73688046033678
287,83.212225,58.73688046033678
288,83.497346,57.31815144548446
289,83.835826,57.65774014129229
290,84.098794,57.31815144548446
291,84.45448,56.60076399831965
292,84.77437,57.73152139160688
293,85.108257,55.96301400018989
294,85.357944,56.672318273016245
295,85.62135,56.60076399831965
296,85.880969,55.939577250356386
297,86.242972,56.26883945162024
298,86.504675,56.60076399831965
299,86.786352,58.00009515768518
300,87.047899,58.73688046033678
301,87.381832,57.65774014129229
302,87.671343,56.672318273016245
303,87.934823,57.65774014129229
304,88.174173,57.008080647855635
305,88.487956,57.65774014129229
306,88.757285,56.26883945162024
307,89.018706,57.73152139160688
308,89.261835,57.31815144548446
309,89.601912,57.008080647855635
310,89.886182,58.07506173639093
311,90.145826,57.65774014129229
312,90.429308,56.672318273016245
313,90.761305,57.31815144548446
314,91.013132,56.26883945162024
315,91.274975,56.60076399831965
316,91.556719,58.00009515768518
317,91.896942,57.65774014129229
318,92.402023,58.00009515768518
319,92.647834,57.008080647855635
320,92.895177,56.672318273016245
321,93.233662,56.60076399831965
322,93.496641,57.65774014129229
323,93.76612,58.00009515768518
324,94.036969,57.34657817371941
325,94.388875,55.96301400018989
326,94.618036,57.65774014129229
327,94.919737,56.60076399831965
328,95.201609,57.008080647855635
329,95.545629,56.60076399831965
330,95.805302,55.96301400018989
331,96.047584,56.26883945162024
332,96.289212,58.00009515768518
333,96.53094,56.62739158605086
334,96.884802,56.935378963584235
335,97.134145,57.31815144548446
336,97.37536,57.34657817371941
337,97.637322,58.00009515768518
338,98.011646,57.008080647855635
339,98.281424,55.63482941853835
340,98.522656,57.65774014129229
341,98.763828,56.672318273016245
342,99.002356,57.65774014129229
343,99.34083,58.00009515768518
344,99.638756,57.65774014129229
345,99.898494,55.96301400018989
346,100.182421,57.65774014129229
347,100.534309,57.34657817371941
348,100.825952,55.96301400018989
349,101.085403,55.96301400018989
350,101.369296,57.65774014129229
351,101.711375,55.96301400018989
352,101.97274,55.96301400018989
353,102.232593,55.96301400018989
354,102.51636,57.687839876580576
355,102.876344,57.34657817371941
356,103.157993,58.00009515768518
357,103.419515,56.26883945162024
358,103.660772,58.00009515768518
359,103.984839,54.939337155844655
360,104.264355,56.60076399831965
361,104.505743,55.63482941853835
362,104.747116,58.00009515768518
363,105.070898,58.34524585141379
364,105.372621,56.62739158605086
365,105.692655,57.34657817371941
366,105.994733,57.34657817371941
367,106.366721,58.34524585141379
368,106.618173,58.34524585141379
369,106.881768,57.34657817371941
370,107.141582,57.687839876580576
371,107.465415,57.008080647855635
372,107.724919,58.00009515768518
373,107.968233,57.65774014129229
374,108.20769,56.60076399831965
375,108.551706,55.96301400018989
376,108.831582,56.293858686073115
377,109.07564,56.935378963584235
378,109.375333,57.34657817371941
379,109.727664,57.687839876580576
380,109.979238,57.687839876580576
381,110.222689,55.96301400018989
382,110.48194,55.96301400018989
383,110.835974,57.27271277761454
384,111.105504,56.60076399831965
385,111.346751,57.687839876580576
386,111.608005,57.34657817371941
387,111.935764,56.62739158605086
388,112.183109,56.935378963584235
389,112.715568,56.62739158605086
390,113.045468,55.96301400018989
391,113.317046,56.60076399831965
392,113.598796,57.27271277761454
393,113.878394,56.293858686073115
394,114.200336,56.62739158605086
395,114.464083,55.96301400018989
396,114.724068,55.26272569191045
397,114.98591,56.935378963584235
398,115.308645,56.60076399831965
399,115.571625,56.62739158605086
400,115.825484,57.27271277761454
401,116.157447,58.34524585141379
402,116.533313,56.62739158605086
403,116.835002,55.26272569191045
404,117.116727,56.935378963584235
405,117.378368,56.60076399831965
406,117.748626,56.62739158605086
407,118.020533,58.00009515768518
408,118.26417,56.293858686073115
409,118.523715,56.62739158605086
410,118.868406,55.58872876811237
411,119.127954,57.27271277761454
412,119.371709,58.031895154124335
413,119.631301,56.935378963584235
414,119.983303,55.26272569191045
415,120.254705,56.963641168334405
416,120.518132,56.62739158605086
417,120.778058,58.37877378136751
418,121.129995,56.963641168334405
419,121.401381,56.62739158605086
420,121.884402,57.687839876580576
421,122.238759,56.963641168334405
422,122.488318,58.031895154124335
423,122.755332,57.34657817371941
424,123.002679,58.00009515768518
425,123.341157,56.293858686073115
426,123.604132,55.917373955460064
427,123.873616,55.26272569191045
428,124.12096,55.58872876811237
429,124.443814,58.69322195517698
430,124.706785,55.96301400018989
431,124.960644,56.62739158605086
432,125.223614,56.55460384331766
433,125.577731,56.22221344189669
434,125.847204,57.34657817371941
435,126.125802,56.62739158605086
436,126.379659,55.58872876811237
437,126.771745,55.26272569191045
438,127.061379,57.687839876580576
439,127.305293,58.69322195517698
440,127.564891,56.293858686073115
441,127.888964,56.935378963584235
442,128.168468,55.26272569191045
443,128.459975,57.27271277761454
444,128.731618,56.935378963584235
445,129.355442,56.963641168334405
446,129.616913,58.00009515768518
447,129.858015,57.687839876580576
448,130.191908,55.58872876811237
449,130.441148,56.62739158605086
450,130.682457,55.58872876811237
451,130.943736,57.612794233043296
452,131.187202,56.963641168334405
453,131.530314,55.58872876811237
454,131.830443,56.963641168334405
455,132.112273,56.963641168334405
456,132.373583,56.62739158605086
457,132.717649,55.58872876811237
458,132.997606,56.62739158605086
459,133.261332,55.58872876811237
460,133.520774,55.58872876811237
461,133.864735,56.62739158605086
462,134.124575,56.62739158605086
463,134.408669,56.62739158605086
464,134.669296,56.293858686073115
465,135.033606,56.963641168334405
466,135.313491,56.62739158605086
467,135.577679,56.2486891756474
468,135.859303,56.62739158605086
469,136.181262,56.963641168334405
470,136.440739,55.58872876811237
471,136.704146,57.612794233043296
472,136.965891,57.612794233043296
473,137.378332,57.30263626487617
474,137.708599,56.963641168334405
475,137.9498,57.612794233043296
476,138.211323,57.687839876580576
477,138.565422,55.917373955460064
478,138.834837,55.917373955460064
479,139.076332,55.58872876811237
480,139.337672,56.62739158605086
481,139.679589,57.30263626487617
482,139.943518,56.62739158605086
483,140.1828,57.30263626487617
484,140.446167,57.30263626487617
485,140.778128,55.917373955460064
486,141.053471,55.58872876811237
487,141.316447,58.301317083607586
488,141.591836,56.55460384331766
489,141.932135,56.963641168334405
490,142.195756,57.30263626487617
491,142.455298,56.963641168334405
492,142.739463,57.30263626487617
493,143.08223,55.917373955460064
494,143.323571,55.917373955460064
495,143.603213,56.88969470505736
496,143.866725,55.58872876811237
497,144.227652,58.72850591637588
498,144.519491,55.216399176734335
499,144.792928,56.963641168334405
500,145.054319,56.963641168334405
501,145.416312,57.30263626487617
502,145.675614,56.963641168334405
503,145.937133,57.30263626487617
504,146.198504,57.30263626487617
505,146.542687,55.917373955460064
506,146.782097,56.963641168334405
507,147.023338,57.30263626487617
508,147.271229,57.30263626487617
509,147.502956,57.64440607685621
510,147.926067,56.963641168334405
511,148.277803,57.30263626487617
512,148.56135,55.917373955460064
513,148.820635,55.917373955460064
514,149.174749,56.2486891756474
515,149.426151,55.917373955460064
516,149.665546,56.963641168334405
517,149.927075,57.30263626487617
518,150.281193,54.892566045847865
519,150.573318,56.2486891756474
520,150.853576,54.892566045847865
521,151.11521,56.88969470505736
522,151.449073,56.2486891756474
523,151.980444,55.84564081249709
524,152.241748,57.64440607685621
525,152.575781,57.30263626487617
526,152.860924,55.917373955460064
527,153.158106,55.917373955460064
528,153.417672,56.2486891756474
529,153.760388,55.917373955460064
530,154.021949,57.30263626487617
531,154.264313,55.216399176734335
532,154.527289,55.542856520218066
533,154.881386,55.917373955460064
534,155.145885,55.917373955460064
535,155.407353,55.917373955460064
536,155.668629,55.58872876811237
537,156.002415,57.988980180263894
538,156.252173,57.30263626487617
539,156.493629,55.917373955460064
540,156.755051,56.2486891756474
541,157.099522,57.30263626487617
542,157.38113,55.917373955460064
543,157.640595,54.892566045847865
544,157.924235,57.30263626487617
545,158.384605,56.58270270631792
546,158.696056,56.91944318642146
547,159.01241,56.91944318642146
548,159.259754,57.64440607685621
549,159.598234,55.216399176734335
550,159.861209,54.892566045847865
551,160.130689,56.2486891756474
552,160.393665,56.58270270631792
553,160.7436,55.917373955460064
554,161.055711,56.2486891756474
555,161.335669,55.917373955460064
556,161.619473,55.917373955460064
557,161.96158,57.64440607685621
558,162.223341,56.58270270631792
559,162.503007,55.917373955460064
560,162.766472,54.892566045847865
561,163.103729,57.988980180263894
562,163.373203,56.58270270631792
563,163.658308,57.30263626487617
564,163.943413,56.2486891756474
565,164.299736,57.30263626487617
566,164.56327,57.30263626487617
567,164.845284,55.542856520218066
568,165.107184,55.542856520218066
569,165.44908,58.301317083607586
570,165.710854,56.58270270631792
571,166.233923,57.955652490389525
572,166.566334,57.30263626487617
573,166.838067,56.2486891756474
574,167.099526,57.25893962166382
575,167.361238,55.216399176734335
576,167.723276,56.91944318642146
577,167.984682,55.542856520218066
578,168.244153,56.58270270631792
579,168.507682,56.2486891756474
580,168.867708,56.58270270631792
581,169.189697,56.58270270631792
582,169.511725,57.227514627009086
583,169.774003,55.216399176734335
584,170.138427,56.58270270631792
585,170.420486,58.649817925732435
586,170.702094,56.2486891756474
587,170.96176,55.216399176734335
588,171.325975,56.58270270631792
589,171.606306,57.30263626487617
590,171.849737,57.64440607685621
591,172.109225,56.2486891756474
592,172.453149,55.216399176734335
593,172.718665,55.542856520218066
594,172.98163,55.216399176734335
595,173.23549,56.55460384331766
596,173.605202,55.216399176734335
597,173.883802,57.30263626487617
598,174.157952,57.30263626487617
599,174.439578,56.175818437561716
600,174.793965,55.917373955460064
601,175.065713,56.58270270631792
602,175.307315,56.2486891756474
603,175.588965,56.2486891756474
604,175.948903,56.58270270631792
605,176.207608,56.2486891756474
606,176.477112,56.58270270631792
607,176.74659,56.58270270631792
608,177.114946,57.64440607685621
609,177.384788,57.988980180263894
610,177.626232,56.91944318642146
611,177.887591,57.64440607685621
612,178.221257,55.216399176734335
613,178.492977,57.227514627009086
614,178.772525,57.227514627009086
615,179.013946,56.58270270631792
