,time (s),surface tension (mN/m)
0,0.104961,44.249188149471166
1,0.354274,44.81959042065981
2,0.583628,44.700812728928824
3,0.816224,44.0422941533407
4,1.132821,44.91151896222402
5,1.396967,44.60966884478628
6,1.629026,44.45741339632921
7,1.868798,45.12358645469324
8,2.113611,44.4010893648153
9,2.486019,45.49119052836242
10,2.752854,44.81959042065981
11,2.982226,45.0649726316878
12,3.211974,44.60966884478628
13,3.443565,44.85391074129177
14,3.757185,44.700812728928824
15,3.999002,45.27739540561712
16,4.229028,45.0649726316878
17,4.459077,45.27739540561712
18,4.722063,44.85391074129177
19,5.057022,45.0649726316878
20,5.306612,44.0422941533407
21,5.533356,44.0422941533407
22,5.788939,44.91151896222402
23,6.037335,44.19384080529444
24,6.360554,45.27739540561712
25,6.598113,44.491456382173325
26,6.85348,44.249188149471166
27,7.090322,44.700812728928824
28,7.328587,43.83672032279169
29,7.628492,44.249188149471166
30,7.873763,43.83672032279169
31,8.123737,44.4010893648153
32,8.376041,45.0649726316878
33,8.691231,44.60966884478628
34,8.954166,44.4010893648153
35,9.201836,44.60966884478628
36,9.44031,43.83672032279169
37,9.663302,44.60966884478628
38,10.276956,44.249188149471166
39,10.598009,44.249188149471166
40,10.864671,44.249188149471166
41,11.108425,44.249188149471166
42,11.443937,44.700812728928824
43,11.674346,44.0422941533407
44,11.921232,44.491456382173325
45,12.160948,44.700812728928824
46,12.407618,44.0422941533407
47,12.737019,44.491456382173325
48,12.967136,44.249188149471166
49,13.2144,45.0649726316878
50,13.445167,44.249188149471166
51,13.681781,44.249188149471166
52,13.97259,44.249188149471166
53,14.223171,45.0649726316878
54,14.47205,44.0422941533407
55,14.68805,44.0422941533407
56,14.91706,43.83672032279169
57,15.257525,44.4010893648153
58,15.501835,44.700812728928824
59,15.757702,44.0422941533407
60,16.001677,44.491456382173325
61,16.237715,44.491456382173325
62,16.556674,43.83672032279169
63,16.78823,44.0422941533407
64,17.037663,44.4010893648153
65,17.276407,44.0422941533407
66,17.511959,44.0422941533407
67,17.816164,44.283438663378405
68,18.068811,44.0422941533407
69,18.313535,44.249188149471166
70,18.544186,43.83672032279169
71,18.79904,44.0422941533407
72,19.125278,44.700812728928824
73,19.380601,44.491456382173325
74,19.633196,44.700812728928824
75,19.865891,44.0422941533407
76,20.116854,43.83672032279169
77,20.427748,44.85391074129177
78,20.691688,45.0649726316878
79,21.030363,44.85391074129177
80,21.324923,43.83672032279169
81,21.633221,44.4010893648153
82,21.887016,44.491456382173325
83,22.184011,44.0422941533407
84,22.415057,44.19384080529444
85,22.738981,44.4010893648153
86,22.984708,44.0422941533407
87,23.251638,44.491456382173325
88,23.478016,44.283438663378405
89,23.72113,45.0649726316878
90,24.046333,43.83672032279169
91,24.309363,44.85391074129177
92,24.553161,44.85391074129177
93,24.809347,43.632455683455014
94,25.036604,44.4010893648153
95,25.353935,44.19384080529444
96,25.585004,44.4010893648153
97,25.810155,44.644198384130696
98,26.081984,44.283438663378405
99,26.334701,43.83672032279169
100,26.646735,44.249188149471166
101,26.878951,43.83672032279169
102,27.112608,44.491456382173325
103,27.340822,43.59771164315099
104,27.583507,44.4010893648153
105,27.890115,44.4010893648153
106,28.127702,43.83672032279169
107,28.382067,44.0422941533407
108,28.624109,44.0422941533407
109,28.861297,43.83672032279169
110,29.174016,43.83672032279169
111,29.403306,43.83672032279169
112,29.643028,45.0649726316878
113,29.871415,43.83672032279169
114,30.113588,43.83672032279169
115,30.412254,44.0422941533407
116,30.660887,44.85391074129177
117,30.888027,43.54455601024861
118,31.13691,43.83672032279169
119,31.56924,44.644198384130696
120,31.832781,43.632455683455014
121,32.073528,43.632455683455014
122,32.320731,44.19384080529444
123,32.649406,44.85391074129177
124,32.897754,43.83672032279169
125,33.140398,44.19384080529444
126,33.382248,43.748069673806526
127,33.632532,44.700812728928824
128,33.933343,43.83672032279169
129,34.188093,44.19384080529444
130,34.420522,44.19384080529444
131,34.664308,43.39455136750438
132,34.91246,43.748069673806526
133,35.219294,44.0422941533407
134,35.501912,43.59771164315099
135,35.754623,43.83672032279169
136,36.043118,43.83672032279169
137,36.36091,44.283438663378405
138,36.596476,43.78329230287815
139,36.843604,43.83672032279169
140,37.07283,43.83672032279169
141,37.314529,43.83672032279169
142,37.614237,43.83672032279169
143,37.881132,44.0422941533407
144,38.114224,43.83672032279169
145,38.357755,44.19384080529444
146,38.598711,43.83672032279169
147,38.915614,43.83672032279169
148,39.161459,43.83672032279169
149,39.403719,44.4010893648153
150,39.653246,44.283438663378405
151,39.892488,44.644198384130696
152,40.19985,44.19384080529444
153,40.435658,43.83672032279169
154,40.688294,43.632455683455014
155,40.930997,44.4010893648153
156,41.180704,44.0422941533407
157,41.483603,44.19384080529444
158,41.743895,43.83672032279169
159,42.080399,43.632455683455014
160,42.312414,44.491456382173325
161,42.634065,43.83672032279169
162,42.937151,44.491456382173325
163,43.179788,43.83672032279169
164,43.434541,44.07674842667517
165,43.749447,42.992093598800665
166,43.99673,44.0422941533407
167,44.232491,44.0422941533407
168,44.460124,44.4010893648153
169,44.696369,44.19384080529444
170,44.986317,44.19384080529444
171,45.256322,44.19384080529444
172,45.548705,44.85391074129177
173,45.77973,44.07674842667517
174,46.096608,44.283438663378405
175,46.33924,44.283438663378405
176,46.55873,43.632455683455014
177,46.799735,44.644198384130696
178,47.03656,44.644198384130696
179,47.339146,44.19384080529444
180,47.594962,43.192682252064515
181,47.820734,43.632455683455014
182,48.049026,43.632455683455014
183,48.287849,43.192682252064515
184,48.604155,43.632455683455014
185,48.852065,43.42948937043672
186,49.100553,43.83672032279169
187,49.349305,43.83672032279169
188,49.599515,43.78329230287815
189,49.917053,44.19384080529444
190,50.181426,43.632455683455014
191,50.412422,44.4010893648153
192,50.66023,44.0422941533407
193,50.910147,43.192682252064515
194,51.217507,43.83672032279169
195,51.459461,44.0422941533407
196,51.70803,43.748069673806526
197,51.985751,43.83672032279169
198,52.389475,44.19384080529444
199,52.645315,43.192682252064515
200,52.899987,43.83672032279169
201,53.131684,44.0422941533407
202,53.360612,44.19384080529444
203,53.658524,43.39455136750438
204,53.921343,44.0422941533407
205,54.174459,43.632455683455014
206,54.419132,43.39455136750438
207,54.753626,43.83672032279169
208,54.993418,43.83672032279169
209,55.240882,44.19384080529444
210,55.484432,43.59771164315099
211,55.725769,43.192682252064515
212,56.054443,43.39455136750438
213,56.305337,44.0422941533407
214,56.548621,43.59771164315099
215,56.77884,44.249188149471166
216,57.027889,43.192682252064515
217,57.331261,43.748069673806526
218,57.598835,43.39455136750438
219,57.826764,43.95288501614449
220,58.07682,44.19384080529444
221,58.458167,43.48391113054758
222,58.763981,43.83672032279169
223,58.991512,43.632455683455014
224,59.22036,43.83672032279169
225,59.452155,43.39455136750438
226,59.760436,44.4010893648153
227,59.995989,43.39455136750438
228,60.224457,43.39455136750438
229,60.477632,43.192682252064515
230,60.710705,43.748069673806526
231,61.044981,43.39455136750438
232,61.313136,43.39455136750438
233,61.547078,43.39455136750438
234,61.778338,43.59771164315099
235,62.019484,44.0422941533407
236,62.315796,43.39455136750438
237,62.708602,43.748069673806526
238,63.006144,43.39455136750438
239,63.260137,44.4010893648153
240,63.573069,43.83672032279169
241,63.846287,43.83672032279169
242,64.0897,43.83672032279169
243,64.34234,43.83672032279169
244,64.657666,43.83672032279169
245,64.925859,43.632455683455014
246,65.174557,44.0422941533407
247,65.435225,43.748069673806526
248,65.817199,43.748069673806526
249,66.085352,44.19384080529444
250,66.325609,43.632455683455014
251,66.573507,43.54455601024861
252,66.916552,43.83672032279169
253,67.211831,43.83672032279169
254,67.463004,44.19384080529444
255,67.70445,43.39455136750438
256,68.03378,43.748069673806526
257,68.278389,43.98791210245071
258,68.524079,43.39455136750438
259,68.748624,43.39455136750438
260,69.000924,43.83672032279169
261,69.303462,43.59771164315099
262,69.550907,43.83672032279169
263,69.83945,44.19384080529444
264,70.08162,44.4010893648153
265,70.382554,43.632455683455014
266,70.630321,43.39455136750438
267,70.876551,44.0422941533407
268,71.125877,44.19384080529444
269,71.358321,44.0422941533407
270,71.668219,44.60966884478628
271,71.927689,44.4010893648153
272,72.174147,43.39455136750438
273,72.429417,44.19384080529444
274,72.761778,43.39455136750438
275,73.155585,43.192682252064515
276,73.421475,43.54455601024861
277,73.66998,43.95288501614449
278,73.968469,43.748069673806526
279,74.221461,43.192682252064515
280,74.464931,43.83672032279169
281,74.720987,43.83672032279169
282,74.964934,43.95288501614449
283,75.269648,44.0422941533407
284,75.516754,43.95288501614449
285,75.741265,43.39455136750438
286,75.970598,43.192682252064515
287,76.25022,43.39455136750438
288,76.575521,43.39455136750438
289,76.828311,43.748069673806526
290,77.078734,43.39455136750438
291,77.313273,44.0422941533407
292,77.561886,43.192682252064515
293,77.889265,44.19384080529444
294,78.125538,43.632455683455014
295,78.366018,43.192682252064515
296,78.62753,43.39455136750438
297,78.863204,43.192682252064515
298,79.178411,43.632455683455014
299,79.419376,42.992093598800665
300,79.65339,43.192682252064515
301,79.878005,43.98791210245071
302,80.109474,43.632455683455014
303,80.427984,43.83672032279169
304,80.676047,44.4010893648153
305,80.903864,43.34233324028738
306,81.131259,44.19384080529444
307,81.388056,42.992093598800665
308,81.712805,43.192682252064515
309,81.940313,43.54455601024861
310,82.195697,43.83672032279169
311,82.428875,43.83672032279169
312,82.663774,43.83672032279169
313,82.964843,43.78329230287815
314,83.210377,43.192682252064515
315,83.58819,43.192682252064515
316,83.860235,43.83672032279169
317,84.181012,43.748069673806526
318,84.410996,43.39455136750438
319,84.663365,43.98791210245071
320,84.910093,43.98791210245071
321,85.157069,44.19384080529444
322,85.460452,43.83672032279169
323,85.706831,43.192682252064515
324,85.958089,42.992093598800665
325,86.200925,43.78329230287815
326,86.435887,44.19384080529444
327,86.751357,43.632455683455014
328,86.97796,43.34233324028738
329,87.228079,43.39455136750438
330,87.455361,43.192682252064515
331,87.709421,43.54455601024861
332,88.007073,43.192682252064515
333,88.267649,43.83672032279169
334,88.521449,43.54455601024861
335,88.761827,43.98791210245071
336,88.987248,43.98791210245071
337,89.308108,43.748069673806526
338,89.567566,44.19384080529444
339,89.824228,43.632455683455014
340,90.070806,43.632455683455014
341,90.293829,43.632455683455014
342,90.625013,43.632455683455014
343,90.881992,43.192682252064515
344,91.135882,44.19384080529444
345,91.391718,43.39455136750438
346,91.616822,43.192682252064515
347,91.944711,43.632455683455014
348,92.178398,43.78329230287815
349,92.402655,44.19384080529444
350,92.631865,43.192682252064515
351,92.935363,43.632455683455014
352,93.240252,43.54455601024861
353,93.493017,43.54455601024861
354,93.726743,43.192682252064515
355,94.052034,43.748069673806526
356,94.413607,43.748069673806526
357,94.641367,43.54455601024861
358,94.877566,43.39455136750438
359,95.119274,43.83672032279169
360,95.370324,44.19384080529444
361,95.68513,43.54455601024861
362,95.912092,42.956881865189665
363,96.150097,43.192682252064515
364,96.380652,42.559138169951666
365,96.601017,42.956881865189665
366,96.895193,43.632455683455014
367,97.137758,43.192682252064515
368,97.358227,43.59771164315099
369,97.584634,43.192682252064515
370,97.814138,42.7573785919174
371,98.138088,43.748069673806526
372,98.389856,43.54455601024861
373,98.645442,44.19384080529444
374,98.892796,43.39455136750438
375,99.125733,43.192682252064515
376,99.441168,43.748069673806526
377,99.699499,43.83672032279169
378,99.919607,43.54455601024861
379,100.154503,43.748069673806526
380,100.39392,43.192682252064515
381,100.694466,43.192682252064515
382,100.925892,43.59771164315099
383,101.159792,43.192682252064515
384,101.376194,43.39455136750438
385,101.61577,43.748069673806526
386,101.914409,43.83672032279169
387,102.143029,43.59771164315099
388,102.364093,43.54455601024861
389,102.591928,43.748069673806526
390,102.83116,43.39455136750438
391,103.134597,43.39455136750438
392,103.360744,43.748069673806526
393,103.620467,43.39455136750438
394,103.848071,43.39455136750438
395,104.085463,43.39455136750438
396,104.435694,43.95288501614449
397,104.727354,43.39455136750438
398,104.975484,43.192682252064515
399,105.207419,43.39455136750438
400,105.527768,43.39455136750438
401,105.767039,43.39455136750438
402,106.000657,43.39455136750438
403,106.22622,43.192682252064515
404,106.477702,43.39455136750438
405,106.781736,43.39455136750438
406,107.029162,43.39455136750438
407,107.274299,43.83672032279169
408,107.516186,44.19384080529444
409,107.752493,43.39455136750438
410,108.103375,43.59771164315099
411,108.352214,43.39455136750438
412,108.603497,42.956881865189665
413,108.838469,43.748069673806526
414,109.075948,43.39455136750438
415,109.386038,43.39455136750438
416,109.708504,43.39455136750438
417,109.967599,43.54455601024861
418,110.197008,43.748069673806526
419,110.512043,43.39455136750438
420,110.765079,43.748069673806526
421,111.016097,43.748069673806526
422,111.24452,43.192682252064515
423,111.483121,43.192682252064515
424,111.829585,43.748069673806526
425,112.08406,43.39455136750438
426,112.327377,43.39455136750438
427,112.558385,43.83672032279169
428,112.781999,43.95288501614449
429,113.096862,43.39455136750438
430,113.33741,43.39455136750438
431,113.559796,43.39455136750438
432,113.798834,43.39455136750438
433,114.023165,43.39455136750438
434,114.340193,43.54455601024861
435,114.577896,43.59771164315099
436,114.900376,43.59771164315099
437,115.190835,43.10570610275446
438,115.486424,43.192682252064515
439,115.722278,43.95288501614449
440,115.943305,43.95288501614449
441,116.190689,44.4010893648153
442,116.418388,43.95288501614449
443,116.735922,43.54455601024861
444,116.969109,43.306834650561115
445,117.213079,42.956881865189665
446,117.44405,43.192682252064515
447,117.684841,43.748069673806526
448,117.990072,43.10570610275446
449,118.249593,42.956881865189665
450,118.485512,43.39455136750438
451,118.719118,44.0422941533407
452,118.960967,43.54455601024861
453,119.282771,43.192682252064515
454,119.530285,43.306834650561115
455,119.760289,43.306834650561115
456,119.990774,43.306834650561115
457,120.223643,43.10570610275446
458,120.534486,43.306834650561115
459,120.788539,43.39455136750438
460,121.017413,42.956881865189665
461,121.260994,43.39455136750438
462,121.496994,43.748069673806526
463,121.821013,43.748069673806526
464,122.057763,43.748069673806526
465,122.286079,43.54455601024861
466,122.52646,43.39455136750438
467,122.770655,43.748069673806526
468,123.091618,43.306834650561115
469,123.357742,43.59771164315099
470,123.585744,43.748069673806526
471,123.8389,43.748069673806526
472,124.078498,43.59771164315099
473,124.408976,43.192682252064515
474,124.632357,43.748069673806526
475,124.856731,43.59771164315099
476,125.096812,43.192682252064515
477,125.356637,43.748069673806526
478,125.665217,42.956881865189665
479,125.924683,43.10570610275446
480,126.157577,42.956881865189665
481,126.391801,42.956881865189665
482,126.634542,43.748069673806526
483,126.951376,43.59771164315099
484,127.203604,43.54455601024861
485,127.445167,43.54455601024861
486,127.720663,42.956881865189665
487,127.947363,42.7573785919174
488,128.245426,43.748069673806526
489,128.573591,43.10570610275446
490,128.827029,42.7573785919174
491,129.060011,43.39455136750438
492,129.352223,43.83672032279169
493,129.644432,43.95288501614449
494,129.883175,42.956881865189665
495,130.123177,43.95288501614449
496,130.439736,43.59771164315099
497,130.695624,43.748069673806526
498,130.938393,43.306834650561115
499,131.18302,43.59771164315099
500,131.437049,43.39455136750438
501,131.737951,43.306834650561115
502,131.982878,43.95288501614449
503,132.216217,43.306834650561115
504,132.442208,43.39455136750438
505,132.689975,43.39455136750438
506,132.994669,43.192682252064515
507,133.240108,43.39455136750438
508,133.480856,43.39455136750438
509,133.703491,43.95288501614449
510,133.961507,42.956881865189665
511,134.322209,43.157658523617776
512,134.600637,42.7573785919174
513,134.838226,43.39455136750438
514,135.070751,43.95288501614449
515,135.386456,43.39455136750438
516,135.781662,42.956881865189665
517,136.052608,42.956881865189665
518,136.279544,43.748069673806526
519,136.582884,42.956881865189665
520,136.885705,42.956881865189665
521,137.136786,42.956881865189665
522,137.371535,43.95288501614449
523,137.670132,43.306834650561115
524,137.911136,42.7573785919174
525,138.14171,42.956881865189665
526,138.361001,43.39455136750438
527,138.62145,43.306834650561115
528,138.941618,42.956881865189665
529,139.181286,43.39455136750438
530,139.44105,42.7573785919174
531,139.683151,42.956881865189665
532,139.934862,43.748069673806526
533,140.255428,43.306834650561115
534,140.496476,43.95288501614449
535,140.769752,43.59771164315099
536,141.029363,43.157658523617776
537,141.317955,43.10570610275446
538,141.590656,42.956881865189665
539,141.841001,43.748069673806526
540,142.084787,43.192682252064515
541,142.393334,43.306834650561115
542,142.641137,43.50924695729058
543,142.86753,42.956881865189665
544,143.088356,42.956881865189665
545,143.325406,42.956881865189665
546,143.651257,43.748069673806526
547,143.881846,42.956881865189665
548,144.115869,42.956881865189665
549,144.365198,43.95288501614449
550,144.613191,43.306834650561115
551,144.9604,43.39455136750438
552,145.217046,43.306834650561115
553,145.453875,43.306834650561115
554,145.67985,42.956881865189665
555,145.907445,42.956881865189665
556,146.328477,42.956881865189665
557,146.561201,42.956881865189665
558,146.788176,43.748069673806526
559,147.0429,42.956881865189665
560,147.401823,42.956881865189665
561,147.643845,43.306834650561115
562,147.870516,43.306834650561115
563,148.12676,43.39455136750438
564,148.375542,43.306834650561115
565,148.689524,42.870085993435126
566,148.938108,43.95288501614449
567,149.168441,43.50924695729058
568,149.39386,43.59771164315099
569,149.648113,43.157658523617776
570,149.974313,43.95288501614449
571,150.210313,42.956881865189665
572,150.45577,43.39455136750438
573,150.695313,43.157658523617776
574,150.943802,42.956881865189665
575,151.246426,43.59771164315099
576,151.507889,43.59771164315099
577,151.758772,42.956881865189665
578,151.99757,43.748069673806526
579,152.323869,42.956881865189665
580,152.57216,42.956881865189665
581,152.803587,43.54455601024861
582,153.035592,43.39455136750438
583,153.289614,43.10570610275446
584,153.575718,42.956881865189665
585,153.842499,43.59771164315099
586,154.069796,43.306834650561115
587,154.305411,43.50924695729058
588,154.550222,43.306834650561115
589,154.853571,43.10570610275446
590,155.12471,43.306834650561115
591,155.392783,43.306834650561115
592,155.619708,43.306834650561115
593,155.849548,43.306834650561115
594,156.18015,42.956881865189665
595,156.527209,43.306834650561115
596,156.989218,42.956881865189665
597,157.350834,42.7573785919174
598,157.65723,42.956881865189665
599,157.919178,43.39455136750438
600,158.191535,42.956881865189665
601,158.508568,43.306834650561115
602,158.820894,42.7573785919174
603,159.048922,43.306834650561115
604,159.280309,43.10570610275446
605,159.597094,43.748069673806526
606,159.835764,42.956881865189665
607,160.072748,43.748069673806526
608,160.308279,42.7573785919174
609,160.552837,42.956881865189665
610,160.862786,42.956881865189665
611,161.150219,43.10570610275446
612,161.38532,42.956881865189665
613,161.623059,43.748069673806526
614,161.860771,43.59771164315099
615,162.173258,43.50924695729058
616,162.422917,43.306834650561115
