,time (s),surface tension (mN/m)
0,0.107249,38.46597379630062
1,0.352505,37.77225252711509
2,0.60461,37.90336241415513
3,0.805468,37.94607278695102
4,1.051063,37.77225252711509
5,1.25116,37.94607278695102
6,1.439812,37.599529070824644
7,1.626153,37.599529070824644
8,1.816571,37.94607278695102
9,2.006006,37.599529070824644
10,2.218718,37.94607278695102
11,2.440231,37.77225252711509
12,2.628494,37.94607278695102
13,2.861226,37.94607278695102
14,3.107273,38.157630560276004
15,3.404105,38.33353176660352
16,3.650463,37.94607278695102
17,3.882372,37.94607278695102
18,4.08793,37.77225252711509
19,4.297814,37.94607278695102
20,4.524102,38.510554223088285
21,4.758699,37.77225252711509
22,4.976457,37.77225252711509
23,5.201095,37.94607278695102
24,5.402384,37.94607278695102
25,5.658807,37.94607278695102
26,5.875404,37.94607278695102
27,6.109553,37.94607278695102
28,6.332366,37.94607278695102
29,6.554777,37.94607278695102
30,6.84468,37.94607278695102
31,7.07383,37.643111341819974
32,7.308636,37.94607278695102
33,7.545266,38.157630560276004
34,7.751862,37.94607278695102
35,8.012642,38.157630560276004
36,8.233722,37.94607278695102
37,8.43412,37.94607278695102
38,8.625845,37.94607278695102
39,8.828307,38.25270647216033
40,9.05627,37.94607278695102
41,9.249015,37.94607278695102
42,9.437591,37.94607278695102
43,9.630689,37.94607278695102
44,9.850864,37.94607278695102
45,10.12331,37.94607278695102
46,10.41189,37.94607278695102
47,10.668897,37.94607278695102
48,10.938465,37.94607278695102
49,11.19537,37.94607278695102
50,11.420027,37.94607278695102
51,11.626513,37.94607278695102
52,11.838609,37.94607278695102
53,12.061776,37.94607278695102
54,12.317837,37.94607278695102
55,12.542343,37.94607278695102
56,12.736818,37.94607278695102
57,12.938983,37.94607278695102
58,13.130096,37.94607278695102
59,13.359347,37.643111341819974
60,13.594738,37.94607278695102
61,13.842591,37.94607278695102
62,14.083328,37.94607278695102
63,14.321663,37.94607278695102
64,14.603879,37.94607278695102
65,14.820505,37.643111341819974
66,15.020863,37.643111341819974
67,15.22536,37.643111341819974
68,15.43375,37.94607278695102
69,15.659144,37.94607278695102
70,15.851651,37.94607278695102
71,16.039232,38.12099887799089
72,16.226185,37.643111341819974
73,16.415262,37.94607278695102
74,16.6295,38.25270647216033
75,16.89191,37.94607278695102
76,17.128898,37.94607278695102
77,17.362344,37.94607278695102
78,17.600105,37.94607278695102
79,17.829129,37.94607278695102
80,18.091476,37.94607278695102
81,18.315819,37.94607278695102
82,18.540637,37.94607278695102
83,18.731775,37.94607278695102
84,18.956626,37.94607278695102
85,19.180573,37.94607278695102
86,19.394085,37.94607278695102
87,19.588029,37.94607278695102
88,19.788749,37.94607278695102
89,19.97716,37.94607278695102
90,20.165598,37.94607278695102
91,20.395434,37.94607278695102
92,20.626669,37.643111341819974
93,20.859387,38.510554223088285
94,21.087298,37.643111341819974
95,21.339174,37.94607278695102
96,21.665728,38.157630560276004
97,21.882789,37.94607278695102
98,22.087164,37.94607278695102
99,22.286694,38.510554223088285
100,22.513074,37.643111341819974
101,22.733559,37.94607278695102
102,22.955511,37.94607278695102
103,23.164764,37.94607278695102
104,23.362318,37.94607278695102
105,23.555504,37.94607278695102
106,23.787025,37.94607278695102
107,23.999969,37.94607278695102
108,24.242628,37.643111341819974
109,24.512843,37.94607278695102
110,24.754042,37.94607278695102
111,25.034859,38.12099887799089
112,25.269833,37.94607278695102
113,25.483638,37.643111341819974
114,25.698404,37.94607278695102
115,25.891108,37.94607278695102
116,26.1082,37.94607278695102
117,26.302606,37.94607278695102
118,26.492589,38.12099887799089
119,26.68219,37.643111341819974
120,26.874266,37.94607278695102
121,27.064834,37.94607278695102
122,27.291465,37.94607278695102
123,27.501226,37.94607278695102
124,27.692454,37.94607278695102
125,27.907586,37.94607278695102
126,28.131027,37.94607278695102
127,28.412196,37.94607278695102
128,28.646049,37.94607278695102
129,28.879467,37.94607278695102
130,29.111873,37.643111341819974
131,29.357957,37.94607278695102
132,29.611144,37.94607278695102
133,29.821477,37.94607278695102
134,30.03426,38.510554223088285
135,30.278209,37.94607278695102
136,30.469494,37.94607278695102
137,30.813183,37.94607278695102
138,31.013134,37.94607278695102
139,31.205202,37.94607278695102
140,31.463807,37.94607278695102
141,31.693579,37.94607278695102
142,31.963473,37.94607278695102
143,32.197092,37.94607278695102
144,32.427411,37.94607278695102
145,32.655852,37.643111341819974
146,32.883179,37.94607278695102
147,33.14806,37.94607278695102
148,33.345357,37.94607278695102
149,33.532264,37.94607278695102
150,33.719843,38.12099887799089
151,33.909012,37.94607278695102
152,34.098588,37.94607278695102
153,34.366256,37.94607278695102
154,34.606846,37.94607278695102
155,34.848052,38.12099887799089
156,35.078179,37.94607278695102
157,35.311827,37.94607278695102
158,35.579546,37.94607278695102
159,35.810078,37.94607278695102
160,36.019831,37.94607278695102
161,36.229066,37.94607278695102
162,36.420335,38.297039917390485
163,36.635394,37.94607278695102
164,36.841674,37.94607278695102
165,37.024531,38.12099887799089
166,37.214443,38.12099887799089
167,37.414513,37.94607278695102
168,37.608591,37.94607278695102
169,37.837831,37.81664082294898
170,38.075879,37.94607278695102
171,38.337966,37.94607278695102
172,38.572545,37.94607278695102
173,38.776047,37.94607278695102
174,39.035664,37.94607278695102
175,39.258179,37.94607278695102
176,39.465558,37.94607278695102
177,39.67371,37.94607278695102
178,39.881383,38.12099887799089
179,40.142073,37.94607278695102
180,40.38803,37.94607278695102
181,40.643167,37.94607278695102
182,40.873386,37.94607278695102
183,41.103742,37.94607278695102
184,41.323471,38.12099887799089
185,41.531468,38.12099887799089
186,41.749953,37.94607278695102
187,42.012586,38.12099887799089
188,42.263677,37.991276350690015
189,42.539378,38.12099887799089
190,42.764609,38.12099887799089
191,42.973558,37.94607278695102
192,43.185938,38.297039917390485
193,43.374201,38.12099887799089
194,43.612743,37.94607278695102
195,43.841181,37.94607278695102
196,44.078781,38.25270647216033
197,44.314631,37.94607278695102
198,44.543095,37.94607278695102
199,44.828853,37.94607278695102
200,45.046058,37.94607278695102
201,45.230019,37.94607278695102
202,45.433481,37.94607278695102
203,45.62203,37.94607278695102
204,45.810397,37.94607278695102
205,46.04308,37.94607278695102
206,46.234435,38.297039917390485
207,46.4622,37.94607278695102
208,46.6963,37.94607278695102
209,46.940443,38.297039917390485
210,47.211516,38.25270647216033
211,47.422724,38.297039917390485
212,47.629893,38.12099887799089
213,47.8295,38.297039917390485
214,48.030815,38.297039917390485
215,48.267418,37.643111341819974
216,48.466606,37.94607278695102
217,48.655276,38.12099887799089
218,48.843358,37.94607278695102
219,49.02739,37.643111341819974
220,49.215948,37.643111341819974
221,49.435269,37.94607278695102
222,49.616102,37.94607278695102
223,49.842543,38.12099887799089
224,50.093041,38.12099887799089
225,50.347151,37.94607278695102
226,50.61903,38.297039917390485
227,50.846164,37.94607278695102
228,51.059049,37.643111341819974
229,51.347131,38.297039917390485
230,51.553126,38.297039917390485
231,51.79106,37.94607278695102
232,51.992923,37.94607278695102
233,52.204186,37.94607278695102
234,52.410554,37.94607278695102
235,52.602686,37.94607278695102
236,52.827807,37.81664082294898
237,53.034886,37.94607278695102
238,53.222575,38.297039917390485
239,53.44158,37.94607278695102
240,53.677043,38.297039917390485
241,53.948641,38.12099887799089
242,54.187977,38.12099887799089
243,54.41545,38.12099887799089
244,54.649283,37.991276350690015
245,54.857036,38.12099887799089
246,55.094208,38.12099887799089
247,55.311836,38.297039917390485
248,55.50098,38.12099887799089
249,55.694078,38.12099887799089
250,55.884465,38.297039917390485
251,56.07151,37.56257982842932
252,56.299349,38.297039917390485
253,56.501003,38.60650968909544
254,56.709627,37.991276350690015
255,56.907698,37.94607278695102
256,57.150704,37.81664082294898
257,57.43728,38.297039917390485
258,57.693332,38.12099887799089
259,57.914411,37.94607278695102
260,58.155247,37.94607278695102
261,58.38436,38.42904610162448
262,58.620459,37.94607278695102
263,58.838837,37.94607278695102
264,59.05169,38.297039917390485
265,59.268516,37.94607278695102
266,59.480286,37.94607278695102
267,59.706875,37.94607278695102
268,59.918301,38.12099887799089
269,60.114431,38.297039917390485
270,60.305655,38.12099887799089
271,60.524921,37.43415578116376
272,60.811002,38.12099887799089
273,61.056506,38.297039917390485
274,61.285489,38.297039917390485
275,61.58311,38.12099887799089
276,61.794794,38.297039917390485
277,62.056251,38.12099887799089
278,62.245858,37.991276350690015
279,62.455714,37.81664082294898
280,62.648453,38.12099887799089
281,62.83754,38.12099887799089
282,63.025748,37.73543549818124
283,63.242822,38.297039917390485
284,63.434923,38.297039917390485
285,63.645981,37.94607278695102
286,63.865614,38.297039917390485
287,64.108394,38.12099887799089
288,64.403035,38.297039917390485
289,64.6523,38.12099887799089
290,64.901463,38.297039917390485
291,65.152612,37.94607278695102
292,65.358673,38.12099887799089
293,65.611854,38.297039917390485
294,65.831027,38.297039917390485
295,66.05462,38.297039917390485
296,66.245768,38.297039917390485
297,66.4421,38.297039917390485
298,66.668439,38.297039917390485
299,66.86548,38.297039917390485
300,67.049607,38.297039917390485
301,67.2444,38.12099887799089
302,67.459057,38.12099887799089
303,67.723964,38.12099887799089
304,67.967959,38.297039917390485
305,68.200044,38.297039917390485
306,68.4403,38.297039917390485
307,68.683905,38.297039917390485
308,68.955917,38.297039917390485
309,69.162406,38.12099887799089
310,69.377975,38.12099887799089
311,69.560611,38.297039917390485
312,69.748155,38.297039917390485
313,69.936893,38.297039917390485
314,70.155073,38.297039917390485
315,70.366988,37.90939077563356
316,70.555827,38.297039917390485
317,70.746035,38.297039917390485
318,70.936398,38.297039917390485
319,71.209916,38.297039917390485
320,71.448175,38.297039917390485
321,71.691129,38.297039917390485
322,72.00286,38.297039917390485
323,72.284314,38.12099887799089
324,72.487634,38.12099887799089
325,72.699147,37.991276350690015
326,72.919086,38.12099887799089
327,73.147184,38.297039917390485
328,73.419811,38.297039917390485
329,73.667895,38.297039917390485
330,73.860278,38.60650968909544
331,74.051907,38.12099887799089
332,74.240595,38.297039917390485
333,74.459137,37.73543549818124
334,74.673323,38.12099887799089
335,74.887625,38.297039917390485
336,75.152802,38.297039917390485
337,75.403549,38.08445472717833
338,75.676631,38.297039917390485
339,75.915107,38.12099887799089
340,76.145975,38.297039917390485
341,76.37112,38.297039917390485
342,76.617423,38.297039917390485
343,76.844204,37.73543549818124
344,77.054638,38.297039917390485
345,77.246834,37.73543549818124
346,77.448543,38.12099887799089
347,77.620124,38.297039917390485
348,77.804184,38.297039917390485
349,78.093483,38.297039917390485
350,78.349259,38.12099887799089
351,78.580485,37.991276350690015
352,78.820524,38.297039917390485
353,79.058274,38.297039917390485
354,79.327945,38.297039917390485
355,79.629234,38.297039917390485
356,79.838774,38.297039917390485
357,80.044998,38.297039917390485
358,80.227909,38.297039917390485
359,80.492696,38.297039917390485
360,80.692373,37.73543549818124
361,80.880278,38.297039917390485
362,81.078993,38.297039917390485
363,81.251652,38.297039917390485
364,81.423923,38.297039917390485
365,81.675334,38.297039917390485
366,81.918419,38.297039917390485
367,82.17525,38.297039917390485
368,82.449916,38.297039917390485
369,82.658008,37.73543549818124
370,82.907384,38.297039917390485
371,83.119721,38.297039917390485
372,83.325992,38.297039917390485
373,83.515119,38.297039917390485
374,83.757098,37.73543549818124
375,83.978964,38.297039917390485
376,84.192618,37.90939077563356
377,84.388348,37.73543549818124
378,84.576675,38.08445472717833
379,84.76357,37.73543549818124
380,84.952976,38.297039917390485
381,85.179032,38.60650968909544
382,85.425134,38.297039917390485
383,85.679053,38.297039917390485
384,85.929979,37.73543549818124
385,86.150122,38.297039917390485
386,86.476201,37.90939077563356
387,86.714507,37.991276350690015
388,86.955813,38.297039917390485
389,87.165621,38.47420511284924
390,87.371684,38.297039917390485
391,87.663583,37.991276350690015
392,87.895252,38.297039917390485
393,88.125351,38.297039917390485
394,88.326706,38.297039917390485
395,88.519232,38.297039917390485
396,88.746638,37.991276350690015
397,88.978676,37.90939077563356
398,89.198447,37.90939077563356
399,89.439548,38.47420511284924
400,89.68499,37.73543549818124
401,89.980967,38.297039917390485
402,90.230655,38.08445472717833
403,90.458437,38.297039917390485
404,90.680931,38.60650968909544
405,90.904733,38.297039917390485
406,91.129874,38.297039917390485
407,91.329902,37.780388440636536
408,91.522216,38.08445472717833
409,91.711464,37.90939077563356
410,91.899332,38.08445472717833
411,92.114803,37.606722199680895
412,92.38136,37.90939077563356
413,92.695475,38.08445472717833
414,92.944729,38.297039917390485
415,93.196431,38.297039917390485
416,93.485214,38.47420511284924
417,93.698571,37.780388440636536
418,93.907307,38.297039917390485
419,94.113565,37.780388440636536
420,94.311795,38.47420511284924
421,94.538701,37.90939077563356
422,94.739666,37.90939077563356
423,94.929044,37.606722199680895
424,95.116617,37.991276350690015
425,95.303113,37.90939077563356
426,95.483681,37.73543549818124
427,95.733233,38.297039917390485
428,96.03702,37.90939077563356
429,96.265869,37.73543549818124
430,96.498423,38.60650968909544
431,96.730589,37.90939077563356
432,96.987428,38.297039917390485
433,97.194591,37.73543549818124
434,97.412658,37.73543549818124
435,97.623484,38.297039917390485
436,97.857638,37.73543549818124
437,98.136563,37.780388440636536
438,98.372914,38.08445472717833
439,98.567303,38.297039917390485
440,98.769559,38.08445472717833
441,98.961939,38.21572804175428
442,99.211072,38.08445472717833
443,99.417128,38.08445472717833
444,99.641055,37.90939077563356
445,99.891275,37.90939077563356
446,100.171154,37.90939077563356
447,100.461598,37.90939077563356
448,100.715602,38.297039917390485
449,100.951877,38.08445472717833
450,101.160444,38.08445472717833
451,101.350446,38.08445472717833
452,101.564081,38.08445472717833
453,101.775928,38.08445472717833
454,101.970118,37.606722199680895
455,102.158703,38.08445472717833
456,102.347727,38.297039917390485
457,102.539182,38.21572804175428
458,102.762859,38.39220664574308
459,103.007554,38.21572804175428
460,103.231485,38.08445472717833
461,103.469664,38.297039917390485
462,103.701157,38.297039917390485
463,103.978672,38.65250376367058
464,104.224974,37.780388440636536
465,104.481199,38.08445472717833
466,104.720099,38.47420511284924
467,104.919882,37.90939077563356
468,105.180009,38.08445472717833
469,105.409558,38.39220664574308
470,105.626853,38.39220664574308
471,105.827404,38.08445472717833
472,106.021541,37.90939077563356
473,106.250903,38.08445472717833
474,106.446158,38.08445472717833
475,106.650485,38.08445472717833
476,106.872847,38.65250376367058
477,107.104398,37.90939077563356
478,107.372489,37.90939077563356
479,107.629276,38.08445472717833
480,107.8768,38.08445472717833
481,108.083466,38.08445472717833
482,108.291677,38.08445472717833
483,108.538778,38.39220664574308
484,108.735512,37.90939077563356
485,108.92309,38.08445472717833
486,109.105805,37.90939077563356
487,109.292388,38.08445472717833
488,109.480779,38.39220664574308
489,109.709595,38.08445472717833
490,109.942746,37.90939077563356
491,110.176254,38.08445472717833
492,110.405838,37.52571574887092
493,110.641745,38.08445472717833
494,110.923673,38.08445472717833
495,111.175896,37.780388440636536
496,111.404111,38.08445472717833
497,111.615409,38.08445472717833
498,111.810357,38.08445472717833
499,112.0589,38.08445472717833
500,112.258438,38.08445472717833
501,112.445529,38.08445472717833
502,112.63369,38.08445472717833
503,112.824952,37.90939077563356
504,113.015338,38.39220664574308
505,113.324845,38.08445472717833
506,113.55999,38.08445472717833
507,113.797326,38.08445472717833
508,114.036352,38.08445472717833
509,114.279481,38.08445472717833
510,114.55522,38.08445472717833
511,114.764679,38.08445472717833
512,114.961845,38.08445472717833
513,115.165524,38.08445472717833
514,115.372247,38.39220664574308
515,115.643967,38.08445472717833
516,115.872827,38.08445472717833
517,116.066804,38.08445472717833
518,116.25682,38.08445472717833
519,116.456418,38.08445472717833
520,116.683518,37.780388440636536
521,116.894369,38.08445472717833
522,117.124968,38.39220664574308
523,117.338585,38.08445472717833
524,117.588383,37.780388440636536
525,117.855751,38.08445472717833
526,118.148908,38.08445472717833
527,118.381668,38.08445472717833
528,118.620443,38.39220664574308
529,118.837216,37.828952623337436
530,119.100894,38.08445472717833
531,119.301858,38.08445472717833
532,119.493634,38.08445472717833
533,119.680246,37.52571574887092
534,119.867763,38.08445472717833
535,120.068417,38.08445472717833
536,120.299173,38.08445472717833
537,120.501247,38.08445472717833
538,120.725832,38.08445472717833
539,120.951242,38.08445472717833
540,121.17747,38.08445472717833
541,121.469156,38.08445472717833
542,121.706609,38.08445472717833
543,121.948842,38.08445472717833
544,122.145818,38.08445472717833
545,122.35548,37.69870450078578
546,122.619463,37.95516358735733
547,122.847515,38.08445472717833
548,123.045691,38.08445472717833
549,123.258308,37.52571574887092
550,123.474735,37.872795679968775
551,123.706824,38.08445472717833
552,123.920013,37.872795679968775
553,124.119741,38.08445472717833
554,124.317942,38.26063650924716
555,124.539595,38.08445472717833
556,124.798562,37.69870450078578
557,125.062468,37.52571574887092
558,125.293411,37.69870450078578
559,125.525495,37.872795679968775
560,125.771314,38.26063650924716
561,126.01135,37.69870450078578
562,126.22732,38.26063650924716
563,126.415765,38.26063650924716
564,126.626689,37.69870450078578
565,126.841613,38.08445472717833
566,127.084541,37.872795679968775
567,127.280417,38.08445472717833
568,127.471117,38.08445472717833
569,127.657356,38.08445472717833
570,127.84499,37.52571574887092
571,128.047792,38.08445472717833
572,128.267455,38.08445472717833
573,128.509107,38.43794536936566
574,128.756563,38.08445472717833
575,129.001542,38.08445472717833
576,129.247725,38.26063650924716
577,129.532537,37.52571574887092
578,129.784112,38.08445472717833
579,130.014575,37.780388440636536
580,130.220011,38.08445472717833
581,130.428246,37.872795679968775
582,130.733731,38.08445472717833
583,130.983903,38.26063650924716
584,131.185579,37.872795679968775
585,131.375252,38.17883722934676
586,131.562288,38.569812113193166
587,131.787646,37.69870450078578
588,132.008147,38.26063650924716
589,132.258642,38.26063650924716
590,132.518054,37.780388440636536
591,132.752527,38.26063650924716
592,133.019734,38.08445472717833
593,133.23776,38.08445472717833
594,133.447548,38.08445472717833
595,133.718249,38.34390217362141
596,133.916196,37.52571574887092
597,134.140834,37.69870450078578
598,134.341437,38.08445472717833
599,134.530254,37.52571574887092
600,134.750613,37.52571574887092
601,134.97171,37.69870450078578
602,135.259622,37.872795679968775
603,135.495425,38.43794536936566
604,135.734619,38.08445472717833
605,135.982972,38.08445472717833
606,136.203151,38.08445472717833
607,136.458266,38.08445472717833
608,136.653607,37.69870450078578
609,136.842559,37.872795679968775
610,137.030667,37.872795679968775
611,137.220916,38.43794536936566
612,137.411225,37.5704192792599
613,137.628383,38.26063650924716
614,137.862475,37.95516358735733
615,138.094134,38.43794536936566
616,138.321568,38.26063650924716
617,138.576911,38.08445472717833
618,138.843891,37.872795679968775
619,139.054499,37.69870450078578
