,time (s),surface tension (mN/m)
0,0.112575,68.39879361942155
1,0.31248,68.68574127519206
2,0.51819,68.68574127519206
3,0.717401,67.51489063480454
4,0.91442,68.68574127519206
5,1.160682,68.68574127519206
6,1.368825,68.08123334481964
7,1.565444,68.68574127519206
8,1.766924,67.53549419589663
9,1.984019,68.39879361942155
10,2.254879,67.51489063480454
11,2.488371,67.79724945885144
12,2.715155,67.51489063480454
13,2.945478,68.08123334481964
14,3.17451,67.51489063480454
15,3.463443,68.13515639085519
16,3.698117,68.39879361942155
17,3.926264,68.08123334481964
18,4.156765,68.08123334481964
19,4.386893,67.79724945885144
20,4.672619,68.08123334481964
21,4.921592,67.53549419589663
22,5.21391,67.79724945885144
23,5.455304,68.08123334481964
24,5.769261,67.79724945885144
25,5.973295,68.97434618404883
26,6.179913,68.68574127519206
27,6.389148,68.68574127519206
28,6.599037,68.68574127519206
29,6.895782,68.68574127519206
30,7.102437,67.79724945885144
31,7.316983,68.13515639085519
32,7.536847,68.68574127519206
33,7.756407,67.53549419589663
34,8.038733,69.2646207775153
35,8.269616,68.42144784283704
36,8.486947,67.79724945885144
37,8.687384,67.51489063480454
38,8.886669,66.38521238246558
39,9.150086,67.20110339006571
40,9.353267,68.7093955952372
41,9.54606,67.25378672468507
42,9.742923,67.79724945885144
43,9.938851,68.42144784283704
44,10.215135,68.42144784283704
45,10.460597,67.51489063480454
46,10.660496,67.79724945885144
47,10.856284,67.51489063480454
48,11.046349,67.79724945885144
49,11.295286,68.42144784283704
50,11.502089,68.08123334481964
51,11.698519,68.08123334481964
52,11.900135,67.51489063480454
53,12.097701,68.97434618404883
54,12.375277,67.79724945885144
55,12.592552,67.53549419589663
56,12.821806,68.08123334481964
57,13.051391,68.68574127519206
58,13.271423,67.79724945885144
59,13.566467,67.25378672468507
60,13.797058,68.68574127519206
61,14.034326,68.68574127519206
62,14.245679,66.92165636259833
63,14.472059,68.08123334481964
64,14.740362,67.25378672468507
65,14.960685,68.42144784283704
66,15.180271,68.68574127519206
67,15.40407,68.97434618404883
68,15.641594,68.97434618404883
69,15.930818,68.97434618404883
70,16.163003,68.08123334481964
71,16.393891,67.79724945885144
72,16.622922,67.8188257583139
73,16.84528,68.42144784283704
74,17.121362,68.97434618404883
75,17.375789,68.08123334481964
76,17.604613,68.08123334481964
77,17.8352,67.53549419589663
78,18.064256,67.79724945885144
79,18.344736,66.97369128889886
80,18.586551,67.53549419589663
81,18.816349,67.79724945885144
82,19.026212,67.79724945885144
83,19.235022,68.13515639085519
84,19.518761,68.08123334481964
85,19.73868,67.79724945885144
86,19.945175,67.51489063480454
87,20.159983,68.97434618404883
88,20.363405,68.13515639085519
89,20.725815,68.68574127519206
90,20.943693,68.68574127519206
91,21.154992,66.92165636259833
92,21.372511,68.68574127519206
93,21.57139,68.68574127519206
94,21.820764,67.79724945885144
95,22.032014,68.13515639085519
96,22.229388,68.13515639085519
97,22.42554,67.79724945885144
98,22.6182,67.79724945885144
99,22.885988,68.97434618404883
100,23.092351,66.92165636259833
101,23.292098,67.79724945885144
102,23.499415,68.68574127519206
103,23.692699,67.53549419589663
104,23.949373,67.25378672468507
105,24.157797,68.97434618404883
106,24.369459,68.08123334481964
107,24.587271,67.53549419589663
108,24.799748,68.08123334481964
109,25.1101,67.53549419589663
110,25.351118,67.53549419589663
111,25.574173,67.8188257583139
112,25.81261,66.64380289357993
113,26.038124,66.38521238246558
114,26.332532,67.51489063480454
115,26.553847,68.13515639085519
116,26.785536,67.79724945885144
117,27.020995,66.38521238246558
118,27.254475,68.08123334481964
119,27.573078,68.97434618404883
120,27.816934,67.25378672468507
121,28.060163,68.08123334481964
122,28.297723,67.53549419589663
123,28.536051,67.53549419589663
124,28.860487,67.25378672468507
125,29.070349,67.79724945885144
126,29.277196,67.53549419589663
127,29.478469,67.53549419589663
128,29.693365,67.25378672468507
129,30.006654,67.8188257583139
130,30.227833,67.25378672468507
131,30.446084,67.53549419589663
132,30.656566,67.53549419589663
133,30.92903,67.53549419589663
134,31.246218,68.08123334481964
135,31.452943,68.08123334481964
136,31.647722,66.66241936263292
137,31.845901,67.53549419589663
138,32.040159,67.79724945885144
139,32.240477,67.53549419589663
140,32.501097,68.7093955952372
141,32.706518,68.42144784283704
142,32.892944,68.08123334481964
143,33.097107,67.79724945885144
144,33.287245,67.53549419589663
145,33.480826,67.53549419589663
146,33.724001,68.42144784283704
147,33.935681,67.8188257583139
148,34.128376,68.7093955952372
149,34.330196,66.66241936263292
150,34.543785,67.25378672468507
151,34.836177,66.38521238246558
152,35.053962,67.25378672468507
153,35.29289,66.66241936263292
154,35.522996,67.53549419589663
155,35.751101,67.53549419589663
156,36.057883,67.53549419589663
157,36.29517,67.8188257583139
158,36.523548,67.25378672468507
159,36.754223,67.8188257583139
160,36.98408,67.53549419589663
161,37.279361,67.25378672468507
162,37.506499,67.25378672468507
163,37.735208,66.94121891377499
164,37.96635,66.38521238246558
165,38.199711,66.38521238246558
166,38.487207,66.38521238246558
167,38.717985,67.8188257583139
168,38.947355,66.94121891377499
169,39.177133,67.8188257583139
170,39.406859,67.25378672468507
171,39.693417,67.8188257583139
172,39.927878,67.53549419589663
173,40.138787,67.8188257583139
174,40.371085,66.66241936263292
175,40.588519,67.53549419589663
176,40.86712,66.94121891377499
177,41.075966,66.94121891377499
178,41.326236,66.94121891377499
179,41.621047,67.8188257583139
180,41.851068,67.8188257583139
181,42.149674,66.94121891377499
182,42.383417,66.94121891377499
183,42.601416,67.53549419589663
184,42.829038,68.10379357652195
185,43.037493,67.8188257583139
186,43.295067,67.8188257583139
187,43.496957,67.8188257583139
188,43.693566,67.8188257583139
189,43.891883,67.8188257583139
190,44.086723,67.53549419589663
191,44.281185,66.94121891377499
192,44.548236,66.94121891377499
193,44.747429,68.36685444590955
194,44.947904,67.8188257583139
195,45.138375,67.8188257583139
196,45.332022,67.53549419589663
197,45.547208,67.8188257583139
198,45.816043,66.94121891377499
199,46.045981,66.66241936263292
200,46.276771,67.8188257583139
201,46.506684,67.53549419589663
202,46.728256,67.53549419589663
203,47.023711,66.94121891377499
204,47.257165,66.94121891377499
205,47.493581,67.503643406238
206,47.720265,67.8188257583139
207,47.94783,67.8188257583139
208,48.229179,67.8188257583139
209,48.47101,67.8188257583139
210,48.702183,68.36685444590955
211,48.929088,68.36685444590955
212,49.172303,67.53549419589663
213,49.468901,66.94121891377499
214,49.723846,67.8188257583139
215,49.973779,67.8188257583139
216,50.202616,67.8188257583139
217,50.436873,67.8188257583139
218,50.707094,67.53549419589663
219,50.917891,66.94121891377499
220,51.12302,68.6541250250055
221,51.337944,67.8188257583139
222,51.557961,66.94121891377499
223,51.929342,66.66241936263292
224,52.151409,68.10379357652195
225,52.362418,67.2216229284156
226,52.581273,67.8188257583139
227,52.791448,67.8188257583139
228,53.055675,67.8188257583139
229,53.256616,66.94121891377499
230,53.478672,66.94121891377499
231,53.676731,68.10379357652195
232,53.868842,66.66241936263292
233,54.119839,67.8188257583139
234,54.333676,66.94121891377499
235,54.53259,67.53549419589663
236,54.731742,67.53549419589663
237,54.931518,68.10379357652195
238,55.185587,68.39040992506904
239,55.386315,67.8188257583139
240,55.610666,67.53549419589663
241,55.820998,68.39040992506904
242,56.040422,65.8020049211328
243,56.344344,68.10379357652195
244,56.570553,68.10379357652195
245,56.78307,66.94121891377499
246,56.999655,67.8188257583139
247,57.218299,67.53549419589663
248,57.505322,67.2216229284156
249,57.742012,66.94121891377499
250,57.962595,67.53549419589663
251,58.199286,67.2216229284156
252,58.430058,66.94121891377499
253,58.713968,66.94121891377499
254,58.953723,67.2216229284156
255,59.182114,67.2216229284156
256,59.412319,67.2216229284156
257,59.641432,68.10379357652195
258,59.934102,66.94121891377499
259,60.184175,67.53549419589663
260,60.415324,67.2216229284156
261,60.64744,67.2216229284156
262,60.874734,67.2216229284156
263,61.16006,67.2216229284156
264,61.397477,67.76482575417361
265,61.630013,68.10379357652195
266,61.857348,66.94121891377499
267,62.145351,67.8188257583139
268,62.446574,66.35227827577091
269,62.66707,68.10379357652195
270,62.869777,67.2216229284156
271,63.076852,68.10379357652195
272,63.292629,68.10379357652195
273,63.558391,68.10379357652195
274,63.777473,66.94121891377499
275,63.985271,68.10379357652195
276,64.198892,68.10379357652195
277,64.414493,66.35227827577091
278,64.685125,66.94121891377499
279,64.901487,67.78729245522378
280,65.094241,66.07635492320553
281,65.289402,67.2216229284156
282,65.486127,66.07635492320553
283,65.74937,67.2216229284156
284,65.960193,66.07635492320553
285,66.15737,67.503643406238
286,66.350364,66.94121891377499
287,66.550733,68.10379357652195
288,66.747716,66.35227827577091
289,67.018967,67.2216229284156
290,67.224934,68.67868718963912
291,67.44314,66.94121891377499
292,67.703635,67.2216229284156
293,67.915561,68.10379357652195
294,68.18928,68.10379357652195
295,68.410049,68.10379357652195
296,68.625163,67.2216229284156
297,68.842548,67.2216229284156
298,69.071359,67.2216229284156
299,69.37007,67.503643406238
300,69.600684,66.94121891377499
301,69.833126,67.503643406238
302,70.060346,67.503643406238
303,70.293894,66.35227827577091
304,70.593864,68.10379357652195
305,70.838024,66.35227827577091
306,71.071468,66.35227827577091
307,71.307853,67.503643406238
308,71.548182,67.503643406238
309,71.829331,67.503643406238
310,72.073122,67.503643406238
311,72.32266,67.503643406238
312,72.589007,67.2216229284156
313,72.896854,67.2216229284156
314,73.110459,67.2216229284156
315,73.361038,67.503643406238
316,73.576973,66.07635492320553
317,73.77868,67.503643406238
318,74.035847,68.10379357652195
319,74.257114,67.2216229284156
320,74.465564,67.78729245522378
321,74.674617,67.78729245522378
322,74.883337,66.07635492320553
323,75.146444,66.94121891377499
324,75.364725,69.2336642241938
325,75.56601,67.2216229284156
326,75.774881,67.78729245522378
327,75.990264,68.67868718963912
328,76.255708,66.62978671041952
329,76.471053,68.04912517608871
330,76.662427,66.07635492320553
331,76.851834,67.503643406238
332,77.040937,68.67868718963912
333,77.234911,67.2216229284156
334,77.492409,67.503643406238
335,77.696781,67.2216229284156
336,77.91364,67.2216229284156
337,78.126469,66.90889206428186
338,78.343577,67.2216229284156
339,78.605005,66.35227827577091
340,78.854682,68.67868718963912
341,79.083651,67.78729245522378
342,79.305162,67.78729245522378
343,79.535226,67.78729245522378
344,79.830903,67.503643406238
345,80.064364,67.16820704072452
346,80.295562,66.90889206428186
347,80.524007,68.33506632928471
348,80.737578,68.04912517608871
349,81.023396,67.503643406238
350,81.281015,67.2216229284156
351,81.510485,67.503643406238
352,81.735129,67.2216229284156
353,81.967481,67.2216229284156
354,82.265326,67.2216229284156
355,82.48882,67.503643406238
356,82.707901,67.16820704072452
357,83.040902,67.2216229284156
358,83.421278,67.503643406238
359,83.667547,66.94121891377499
360,83.883887,69.87800017953536
361,84.096609,68.96863786823917
362,84.322178,69.2903098882488
363,84.615649,66.35227827577091
364,84.816181,67.503643406238
365,85.014146,68.39040992506904
366,85.213153,68.04912517608871
367,85.416539,68.67868718963912
368,85.677194,67.503643406238
369,85.877874,68.04912517608871
370,86.07715,67.503643406238
371,86.285563,67.48215585771594
372,86.481863,67.48215585771594
373,86.743516,67.76482575417361
374,86.952133,68.04912517608871
375,87.172741,66.35227827577091
376,87.395349,67.2216229284156
377,87.626091,67.503643406238
378,87.902713,66.35227827577091
379,88.133829,67.503643406238
380,88.354088,67.503643406238
381,88.585656,66.62978671041952
382,88.807266,67.503643406238
383,89.107743,68.04912517608871
384,89.335976,67.2216229284156
385,89.567675,67.503643406238
386,89.796135,67.503643406238
387,90.026791,67.503643406238
388,90.322683,67.503643406238
389,90.549956,67.503643406238
390,90.77882,67.503643406238
391,91.006601,68.39040992506904
392,91.235814,67.503643406238
393,91.535869,68.0725822928061
394,91.759402,67.16820704072452
395,92.011667,68.04912517608871
396,92.253457,67.503643406238
397,92.492795,67.503643406238
398,92.790269,67.76482575417361
399,93.036061,68.10379357652195
400,93.244132,68.04912517608871
401,93.500399,66.62978671041952
402,93.74226,67.503643406238
403,94.028453,67.2216229284156
404,94.244957,66.62978671041952
405,94.463036,68.04912517608871
406,94.680575,67.503643406238
407,94.901059,67.503643406238
408,95.203978,67.503643406238
409,95.410697,67.2216229284156
410,95.603261,67.2216229284156
411,95.790572,66.35227827577091
412,95.99052,66.35227827577091
413,96.186635,67.503643406238
414,96.432424,66.35227827577091
415,96.64338,67.503643406238
416,96.840154,67.503643406238
417,97.033852,67.2216229284156
418,97.238642,67.503643406238
419,97.510816,68.39040992506904
420,97.720649,66.88845612278995
421,97.919169,68.39040992506904
422,98.123793,67.16820704072452
423,98.336064,68.04912517608871
424,98.635167,67.2216229284156
425,98.850408,66.62978671041952
426,99.095985,66.90889206428186
427,99.319284,66.90889206428186
428,99.548286,66.35227827577091
429,99.845477,67.78729245522378
430,100.124885,66.90889206428186
431,100.355165,66.90889206428186
432,100.58005,66.35227827577091
433,100.80083,66.35227827577091
434,101.069852,66.90889206428186
435,101.291933,68.33506632928471
436,101.515669,68.33506632928471
437,101.740831,68.04912517608871
438,101.969474,68.33506632928471
439,102.258633,67.16820704072452
440,102.486099,67.78729245522378
441,102.72301,68.04912517608871
442,102.95252,68.04912517608871
443,103.183638,68.04912517608871
444,103.46545,67.44956778221805
445,103.7111,68.33506632928471
446,104.012828,68.33506632928471
447,104.247886,67.503643406238
448,104.544839,68.33506632928471
449,104.769841,66.90889206428186
450,105.003895,67.44956778221805
451,105.229964,68.04912517608871
452,105.449715,67.78729245522378
453,105.721347,67.44956778221805
454,105.943887,66.62978671041952
455,106.16586,67.44956778221805
456,106.38971,67.44956778221805
457,106.605065,68.04912517608871
458,106.880669,67.503643406238
459,107.110834,67.16820704072452
460,107.328697,68.0725822928061
461,107.557329,66.90889206428186
462,107.774232,67.16820704072452
463,108.05604,68.04912517608871
464,108.256022,67.44956778221805
465,108.449286,67.16820704072452
466,108.65063,67.16820704072452
467,108.844788,67.16820704072452
468,109.039773,68.62266152992113
469,109.294952,68.33506632928471
470,109.51488,67.44956778221805
471,109.713543,68.0725822928061
472,109.912124,68.0725822928061
473,110.11086,68.33506632928471
474,110.357945,66.62978671041952
475,110.570465,68.33506632928471
476,110.7623,67.18960628114881
477,110.956192,67.503643406238
478,111.155775,68.62266152992113
479,111.347159,67.16820704072452
480,111.594888,67.78729245522378
481,111.818693,68.04912517608871
482,112.057891,66.62978671041952
483,112.286445,67.16820704072452
484,112.509057,67.78729245522378
485,112.803343,67.16820704072452
486,113.039755,66.62978671041952
487,113.268041,67.44956778221805
488,113.500933,66.62978671041952
489,113.7289,67.44956778221805
490,114.026996,67.44956778221805
491,114.316176,67.73255038757654
492,114.542997,67.18960628114881
493,114.774427,67.44956778221805
494,115.005035,67.78729245522378
495,115.298878,67.44956778221805
496,115.524202,67.44956778221805
497,115.752083,67.18960628114881
498,115.967315,65.76862056477366
499,116.196915,68.04912517608871
500,116.490965,66.62978671041952
501,116.737185,67.503643406238
502,116.966424,68.0725822928061
503,117.172862,68.04912517608871
504,117.381121,66.62978671041952
505,117.665443,66.62978671041952
506,117.88659,68.04912517608871
507,118.095936,66.90889206428186
508,118.319642,67.44956778221805
509,118.53371,66.62978671041952
510,118.810308,67.16820704072452
511,119.039693,67.44956778221805
512,119.258921,66.62978671041952
513,119.482825,68.96863786823917
514,119.698147,68.96863786823917
515,119.954559,67.44956778221805
516,120.151598,67.44956778221805
517,120.339683,67.78729245522378
518,120.536789,65.76862056477366
519,120.742157,68.0725822928061
520,120.94021,67.16820704072452
521,121.193341,67.503643406238
522,121.403075,66.62978671041952
523,121.600266,68.62266152992113
524,121.798195,67.44956778221805
525,121.995956,68.0725822928061
526,122.191587,66.90889206428186
527,122.448108,68.33506632928471
528,122.656096,66.30008200501642
529,122.849689,67.503643406238
530,123.060207,68.33506632928471
531,123.272374,65.76862056477366
532,123.54077,67.16820704072452
533,123.772269,67.44956778221805
534,123.9914,68.0725822928061
535,124.214658,68.62266152992113
536,124.466427,67.18960628114881
537,124.796804,67.18960628114881
538,125.046456,66.57694579824272
539,125.277676,66.88845612278995
540,125.506416,67.44956778221805
541,125.737781,66.62978671041952
542,126.022418,68.33506632928471
543,126.257351,68.04912517608871
544,126.48891,67.44956778221805
545,126.716189,68.0725822928061
546,126.947847,68.04912517608871
547,127.228915,68.62266152992113
548,127.469781,67.78729245522378
549,127.71986,67.16820704072452
550,127.950768,66.30008200501642
551,128.180085,66.0432650179049
552,128.468145,67.44956778221805
553,128.701583,67.16820704072452
554,128.931834,66.0432650179049
555,129.164838,67.18960628114881
556,129.38069,67.44956778221805
557,129.690806,67.44956778221805
558,129.912538,67.47194141260515
559,130.120852,66.88845612278995
560,130.328873,68.0725822928061
561,130.537965,66.90889206428186
562,130.822958,67.44956778221805
563,131.052973,67.18960628114881
564,131.26833,67.44956778221805
565,131.48645,66.90889206428186
566,131.700171,67.78729245522378
567,131.99979,66.35227827577091
568,132.228801,66.62978671041952
569,132.418859,67.44956778221805
570,132.623954,67.44956778221805
571,132.827043,67.44956778221805
572,133.085055,66.62978671041952
573,133.291308,67.47194141260515
574,133.495731,66.90889206428186
575,133.695643,67.44956778221805
576,133.897463,66.90889206428186
577,134.145716,68.91192320566984
578,134.356739,66.90889206428186
579,134.554758,67.44956778221805
580,134.752852,67.44956778221805
581,135.033574,66.90889206428186
582,135.320288,66.90889206428186
583,135.52613,67.78729245522378
584,135.733981,67.44956778221805
585,135.958947,66.90889206428186
586,136.176818,67.44956778221805
587,136.462663,67.44956778221805
588,136.690391,66.90889206428186
589,136.909558,66.90889206428186
590,137.13812,66.90889206428186
591,137.370621,67.44956778221805
592,137.635348,67.44956778221805
593,137.87839,67.44956778221805
594,138.111057,67.73255038757654
595,138.349691,67.44956778221805
596,138.579774,67.44956778221805
597,138.872293,67.44956778221805
598,139.102318,67.44956778221805
599,139.330957,68.33506632928471
600,139.562338,66.90889206428186
601,139.788839,67.47194141260515
602,140.079728,67.44956778221805
603,140.322947,68.01716700577087
604,140.563584,67.44956778221805
605,140.796144,67.44956778221805
606,141.023186,67.44956778221805
607,141.300579,68.01716700577087
608,141.520996,66.90889206428186
609,141.744057,67.44956778221805
610,141.972074,67.44956778221805
611,142.190884,68.91192320566984
612,142.49155,68.33506632928471
613,142.712841,68.01716700577087
614,142.924858,68.01716700577087
615,143.141595,67.16820704072452
616,143.361583,66.90889206428186
617,143.636787,67.44956778221805
618,143.853616,67.44956778221805
619,144.051038,66.90889206428186
620,144.248913,66.90889206428186
621,144.444195,67.44956778221805
622,144.636217,67.44956778221805
623,144.892372,67.16820704072452
624,145.116754,67.44956778221805
625,145.365364,66.62978671041952
626,145.570357,67.44956778221805
627,145.764968,66.90889206428186
628,146.03567,66.90889206428186
629,146.233,67.73255038757654
630,146.430324,66.90889206428186
