,time (s),surface tension (mN/m)
0,0.110221,72.31186786694593
1,0.426697,71.9804995849591
2,0.678383,71.3846544392901
3,0.910629,71.3846544392901
4,1.246505,72.61373501672878
5,1.491177,72.61373501672878
6,1.767189,72.31186786694593
7,2.016627,74.17824978019395
8,2.349955,72.61373501672878
9,2.647767,72.31186786694593
10,2.894711,72.66311516566545
11,3.131734,72.9173381802542
12,3.454598,73.27343641977745
13,3.708047,72.61373501672878
14,3.956866,72.9173381802542
15,4.188141,73.55942294532683
16,4.416943,72.33048070107844
17,4.765994,72.31186786694593
18,5.022848,73.55942294532683
19,5.262664,73.25267149353519
20,5.503153,72.31186786694593
21,5.749275,73.27343641977745
22,6.079549,73.86794462394063
23,6.315681,73.58124416037741
24,6.582676,72.31186786694593
25,6.848192,73.55942294532683
26,7.165684,72.61373501672878
27,7.42239,72.31186786694593
28,7.695737,72.01172389105302
29,7.948241,71.72988336847203
30,8.281788,72.33048070107844
31,8.511782,72.9173381802542
32,8.76135,72.61373501672878
33,8.991642,73.55942294532683
34,9.239471,72.01172389105302
35,9.565698,72.61373501672878
36,9.845906,71.3846544392901
37,10.114938,72.31186786694593
38,10.50101,72.96739780293059
39,10.828482,72.31186786694593
40,11.08088,73.55942294532683
41,11.322331,72.31186786694593
42,11.584369,72.31186786694593
43,11.933331,72.61373501672878
44,12.186925,72.61373501672878
45,12.462254,71.72988336847203
46,12.705154,72.96739780293059
47,13.037984,72.6333752812633
48,13.292629,71.9804995849591
49,13.548432,73.55942294532683
50,13.796113,71.72988336847203
51,14.159546,73.55942294532683
52,14.415212,72.61373501672878
53,14.65297,72.61373501672878
54,14.905683,71.72988336847203
55,15.247701,73.27343641977745
56,15.503828,73.55942294532683
57,15.755596,71.08927310521278
58,16.00651,72.96739780293059
59,16.336203,73.27343641977745
60,16.591092,72.31186786694593
61,16.851546,72.66311516566545
62,17.089024,72.9173381802542
63,17.410278,72.61373501672878
64,17.676262,73.22269031288529
65,17.952059,72.66311516566545
66,18.183597,71.72988336847203
67,18.513301,72.02932101384634
68,18.765997,72.3605754813771
69,19.016808,72.31186786694593
70,19.265745,72.96739780293059
71,19.594044,73.22269031288529
72,19.854953,71.3846544392901
73,20.100279,73.58124416037741
74,20.348681,72.33048070107844
75,20.707294,73.55942294532683
76,21.019084,71.43215502844129
77,21.267421,72.66311516566545
78,21.520295,71.10481279494294
79,21.857483,72.33048070107844
80,22.09911,72.02932101384634
81,22.358254,72.61373501672878
82,22.625689,71.43215502844129
83,22.977097,71.72988336847203
84,23.229899,72.02932101384634
85,23.479319,70.81013239279804
86,23.733071,74.17824978019395
87,24.050104,72.31186786694593
88,24.316325,71.08927310521278
89,24.568263,72.96739780293059
90,24.841691,72.61373501672878
91,25.14045,72.02932101384634
92,25.398487,72.02932101384634
93,25.655636,72.33048070107844
94,25.929025,73.58124416037741
95,26.260306,72.96739780293059
96,26.509315,70.81013239279804
97,26.763583,73.27343641977745
98,27.02002,71.72988336847203
99,27.331561,71.9804995849591
100,27.617341,71.72988336847203
101,27.86996,72.33048070107844
102,28.119033,72.66311516566545
103,28.438083,72.61373501672878
104,28.701822,71.72988336847203
105,28.972952,72.61373501672878
106,29.20983,72.61373501672878
107,29.560501,71.72988336847203
108,29.832173,73.55942294532683
109,30.083835,73.86794462394063
110,30.337616,72.02932101384634
111,30.665582,72.9173381802542
112,30.917074,73.27343641977745
113,31.340518,72.02932101384634
114,31.588316,71.43215502844129
115,31.912858,71.43215502844129
116,32.165673,70.81013239279804
117,32.41888,72.61373501672878
118,32.689678,72.9173381802542
119,33.051272,72.31186786694593
120,33.319451,73.25267149353519
121,33.587764,72.02932101384634
122,33.841718,72.61373501672878
123,34.155773,73.55942294532683
124,34.406949,70.81013239279804
125,34.651963,73.86794462394063
126,34.888877,73.27343641977745
127,35.133544,72.02932101384634
128,35.465585,72.02932101384634
129,35.721486,72.9173381802542
130,35.945372,73.86794462394063
131,36.201793,73.25267149353519
132,36.44574,72.96739780293059
133,36.791692,72.02932101384634
134,37.044127,72.31186786694593
135,37.304228,72.66311516566545
136,37.576603,72.61373501672878
137,37.897083,72.31186786694593
138,38.167919,71.72988336847203
139,38.399407,72.31186786694593
140,38.647367,72.31186786694593
141,38.87464,73.25267149353519
142,39.207492,73.25267149353519
143,39.479685,72.01172389105302
144,39.745672,72.31186786694593
145,40.00355,72.96739780293059
146,40.328506,73.27343641977745
147,40.572315,74.23028451089986
148,40.82013,70.51712836361743
149,41.089338,70.81013239279804
150,41.418874,71.72988336847203
151,41.856632,72.96739780293059
152,42.120893,72.31186786694593
153,42.372511,71.43215502844129
154,42.715713,72.01172389105302
155,42.974917,73.58124416037741
156,43.238495,72.31186786694593
157,43.494308,73.25267149353519
158,43.816971,73.61005945712981
159,44.072633,71.43215502844129
160,44.324927,73.55942294532683
161,44.559455,72.96739780293059
162,44.802908,71.43215502844129
163,45.141327,71.08927310521278
164,45.387929,72.96739780293059
165,45.636314,72.61373501672878
166,45.905724,72.61373501672878
167,46.245107,72.61373501672878
168,46.581104,73.55942294532683
169,46.830808,72.94767713626871
170,47.064039,72.3605754813771
171,47.420668,72.61373501672878
172,47.673419,70.81013239279804
173,47.981336,72.61373501672878
174,48.249309,72.61373501672878
175,48.629398,73.86794462394063
176,48.895096,72.3605754813771
177,49.167809,72.31186786694593
178,49.418291,72.66311516566545
179,49.749583,73.25267149353519
180,50.005473,70.81013239279804
181,50.234028,71.08927310521278
182,50.504842,71.72988336847203
183,50.73754,71.08927310521278
184,51.074954,71.3846544392901
185,51.318462,72.02932101384634
186,51.568969,72.94767713626871
187,51.820938,72.31186786694593
188,52.227005,73.55942294532683
189,52.496163,72.01172389105302
190,52.819969,72.01172389105302
191,53.055176,72.02932101384634
192,53.393915,73.25267149353519
193,53.647669,72.66311516566545
194,53.8999,72.01172389105302
195,54.156786,72.02932101384634
196,54.499773,70.51712836361743
197,54.763196,73.55942294532683
198,54.99234,72.96739780293059
199,55.220645,72.61373501672878
200,55.574308,71.43215502844129
201,55.830438,71.72988336847203
202,56.095601,73.25267149353519
203,56.356572,73.55942294532683
204,56.728157,72.01172389105302
205,56.967405,72.96739780293059
206,57.227147,73.25267149353519
207,57.48023,72.31186786694593
208,57.819557,72.31186786694593
209,58.086837,72.66311516566545
210,58.338006,72.94767713626871
211,58.569525,72.01172389105302
212,58.816841,73.25267149353519
213,59.1301,72.66311516566545
214,59.382497,72.9173381802542
215,59.632171,72.02932101384634
216,59.900786,72.01172389105302
217,60.237845,72.01172389105302
218,60.509561,73.25267149353519
219,60.761702,73.55942294532683
220,61.007356,72.31186786694593
221,61.344012,72.61373501672878
222,61.593013,73.25267149353519
223,61.839368,72.01172389105302
224,62.078181,71.43215502844129
225,62.465796,72.61373501672878
226,62.743498,71.3846544392901
227,62.99751,73.55942294532683
228,63.246702,71.08927310521278
229,63.570331,71.43215502844129
230,63.832099,72.61373501672878
231,64.08745,73.25267149353519
232,64.332471,72.94767713626871
233,64.657975,72.3605754813771
234,64.912928,72.94767713626871
235,65.166082,72.31186786694593
236,65.415647,72.94767713626871
237,65.747209,72.61373501672878
238,66.019295,72.01172389105302
239,66.268943,72.0597658397906
240,66.521797,73.55942294532683
241,66.853535,73.55942294532683
242,67.106592,72.01172389105302
243,67.34883,72.61373501672878
244,67.589489,72.61373501672878
245,67.835055,72.31186786694593
246,68.163791,72.9173381802542
247,68.421727,72.94767713626871
248,68.675273,72.31186786694593
249,68.923292,73.25267149353519
250,69.253765,72.94767713626871
251,69.517437,72.01172389105302
252,69.781357,72.31186786694593
253,70.009947,73.25267149353519
254,70.329258,72.31186786694593
255,70.59851,72.31186786694593
256,70.844467,72.61373501672878
257,71.091241,72.01172389105302
258,71.323589,72.61373501672878
259,71.654039,71.72988336847203
260,71.914492,72.96739780293059
261,72.166183,72.94767713626871
262,72.408968,73.9192766553936
263,72.758234,73.25267149353519
264,73.161073,70.79556930227604
265,73.41696,73.25267149353519
266,73.680045,72.31186786694593
267,74.005004,73.55942294532683
268,74.270271,72.3605754813771
269,74.522061,72.61373501672878
270,74.771767,71.72988336847203
271,75.093434,72.02932101384634
272,75.351911,72.31186786694593
273,75.585444,72.31186786694593
274,75.835715,72.31186786694593
275,76.088786,71.72988336847203
276,76.42035,72.94767713626871
277,76.671977,72.02932101384634
278,76.921704,71.72988336847203
279,77.158205,72.01172389105302
280,77.495193,72.66311516566545
281,77.761551,72.02932101384634
282,78.027517,71.43215502844129
283,78.267249,71.13612337061925
284,78.599972,73.25267149353519
285,78.861646,71.43215502844129
286,79.116693,72.94767713626871
287,79.378953,73.55942294532683
288,79.705726,70.51712836361743
289,79.958801,70.79556930227604
290,80.210236,73.55942294532683
291,80.455133,70.79556930227604
292,80.793467,73.25267149353519
293,81.05528,72.31186786694593
294,81.287298,72.31186786694593
295,81.539292,72.94767713626871
296,81.78318,72.66311516566545
297,82.11988,72.96739780293059
298,82.370874,71.43215502844129
299,82.619001,73.25267149353519
300,82.871977,72.3605754813771
301,83.207233,71.72988336847203
302,83.675096,72.3605754813771
303,83.933082,71.72988336847203
304,84.191078,73.86794462394063
305,84.516553,72.66311516566545
306,84.765045,73.27343641977745
307,85.022662,73.25267149353519
308,85.259628,74.51902492113179
309,85.606218,73.55942294532683
310,85.855786,72.01172389105302
311,86.147473,71.08927310521278
312,86.400279,72.01172389105302
313,86.710667,73.55942294532683
314,86.972997,71.68172574767937
315,87.220345,72.66311516566545
316,87.449838,72.96739780293059
317,87.677882,73.86794462394063
318,88.002824,73.58124416037741
319,88.2622,71.43215502844129
320,88.518664,72.61373501672878
321,88.76298,73.25267149353519
322,89.091973,72.66311516566545
323,89.331849,72.33048070107844
324,89.583277,72.01172389105302
325,89.838292,73.55942294532683
326,90.180931,71.43215502844129
327,90.432805,72.02932101384634
328,90.684466,71.3846544392901
329,90.936636,72.96739780293059
330,91.271181,71.72988336847203
331,91.51589,73.25267149353519
332,91.770807,71.72988336847203
333,92.021005,73.25267149353519
334,92.359835,73.61005945712981
335,92.628906,72.61373501672878
336,92.858655,72.66311516566545
337,93.129549,72.96739780293059
338,93.46595,72.94767713626871
339,93.713865,72.01172389105302
340,93.98648,71.72988336847203
341,94.236315,72.96739780293059
342,94.570001,72.02932101384634
343,94.842117,71.43215502844129
344,95.088792,72.66311516566545
345,95.336787,72.31186786694593
346,95.657928,70.79556930227604
347,95.925804,73.25267149353519
348,96.159115,73.25267149353519
349,96.408587,71.72988336847203
350,96.748756,72.96739780293059
351,96.989884,72.96739780293059
352,97.240409,71.43215502844129
353,97.480606,71.43215502844129
354,97.723451,72.96739780293059
355,98.057592,73.25267149353519
356,98.308026,71.72988336847203
357,98.577923,72.02932101384634
358,98.817733,72.66311516566545
359,99.162826,71.43215502844129
360,99.414237,73.9192766553936
361,99.667286,71.43215502844129
362,99.901568,71.43215502844129
363,100.252013,73.55942294532683
364,100.501366,73.55942294532683
365,100.765932,73.55942294532683
366,100.999225,73.55942294532683
367,101.341942,72.02932101384634
368,101.595206,72.01172389105302
369,101.897385,72.02932101384634
370,102.148933,72.02932101384634
371,102.478116,72.66311516566545
372,102.738521,72.3605754813771
373,102.982106,72.66311516566545
374,103.251794,71.72988336847203
375,103.582395,71.72988336847203
376,103.83691,73.55942294532683
377,104.081681,72.96739780293059
378,104.413422,72.66311516566545
379,104.799333,72.66311516566545
380,105.049256,71.43215502844129
381,105.303428,72.66311516566545
382,105.55372,71.43215502844129
383,105.881241,72.01172389105302
384,106.133313,72.96739780293059
385,106.385607,71.72988336847203
386,106.634817,72.66311516566545
387,106.977988,72.96739780293059
388,107.260531,73.25267149353519
389,107.512575,72.31186786694593
390,107.764516,71.72988336847203
391,108.096577,72.01172389105302
392,108.354613,71.43215502844129
393,108.607555,72.66311516566545
394,108.855372,71.72988336847203
395,109.183071,72.33048070107844
396,109.441799,71.72988336847203
397,109.686449,72.61373501672878
398,109.936025,71.43215502844129
399,110.167167,72.02932101384634
400,110.497537,71.72988336847203
401,110.769933,73.25267149353519
402,111.026213,72.31186786694593
403,111.275134,72.9173381802542
404,111.602799,72.33048070107844
405,111.882413,72.01172389105302
406,112.127331,72.94767713626871
407,112.356703,72.02932101384634
408,112.687028,73.25267149353519
409,112.965158,73.86794462394063
410,113.220314,71.08927310521278
411,113.46745,72.33048070107844
412,113.798389,72.66311516566545
413,114.055311,73.25267149353519
414,114.304097,72.31186786694593
415,114.550547,72.31186786694593
416,114.983468,72.31186786694593
417,115.241471,72.02932101384634
418,115.474822,72.61373501672878
419,115.725527,73.25267149353519
420,115.971559,72.3605754813771
421,116.311327,73.25267149353519
422,116.579254,72.31186786694593
423,116.829614,70.22578836437563
424,117.075051,74.51902492113179
425,117.308022,71.43215502844129
426,117.654398,72.61373501672878
427,117.914353,72.94767713626871
428,118.16611,72.02932101384634
429,118.430498,72.94767713626871
430,118.776069,74.51902492113179
431,119.023344,71.08927310521278
432,119.282865,72.96739780293059
433,119.544651,71.43215502844129
434,119.86535,72.31186786694593
435,120.123864,72.66311516566545
436,120.378735,72.01172389105302
437,120.629006,72.61373501672878
438,120.969504,74.20729887149949
439,121.229829,71.13612337061925
440,121.485948,74.20729887149949
441,121.737849,70.22578836437563
442,122.058296,72.01172389105302
443,122.326588,73.55942294532683
444,122.573794,72.61373501672878
445,122.820187,72.31186786694593
446,123.148156,71.43215502844129
447,123.391048,72.31186786694593
448,123.640206,72.01172389105302
449,123.887831,71.72988336847203
450,124.134515,73.25267149353519
451,124.473145,73.25267149353519
452,124.765543,72.3605754813771
453,125.05533,71.71329036349664
454,125.353429,72.01172389105302
455,125.673829,72.31186786694593
456,125.960692,71.72988336847203
457,126.224397,72.31186786694593
458,126.456414,72.01172389105302
459,126.778003,72.01172389105302
460,127.023342,72.01172389105302
461,127.268759,73.86794462394063
462,127.541658,72.01172389105302
463,127.883363,72.01172389105302
464,128.130769,73.55942294532683
465,128.376028,72.01172389105302
466,128.628501,74.17824978019395
467,128.880876,73.55942294532683
468,129.224559,73.55942294532683
469,129.479837,73.55942294532683
470,129.731562,72.01172389105302
471,129.969918,73.55942294532683
472,130.314254,72.31186786694593
473,130.558643,72.01172389105302
474,130.802935,72.01172389105302
475,131.047693,74.17824978019395
476,131.30062,70.18009751226107
477,131.608995,73.86794462394063
478,131.881837,74.17824978019395
479,132.134596,70.22578836437563
480,132.382862,74.17824978019395
481,132.745853,71.68172574767937
482,132.994231,73.86794462394063
483,133.239907,72.61373501672878
484,133.492354,72.01172389105302
485,133.819931,72.31186786694593
486,134.074494,73.25267149353519
487,134.308537,72.31186786694593
488,134.556525,72.01172389105302
489,134.819533,72.9173381802542
490,135.158952,72.61373501672878
491,135.41698,72.9173381802542
492,135.774438,73.25267149353519
493,136.016125,72.31186786694593
494,136.358507,72.01172389105302
495,136.626788,72.31186786694593
496,136.873878,72.01172389105302
497,137.107845,73.25267149353519
498,137.354755,72.61373501672878
499,137.700229,73.25267149353519
500,137.947102,72.31186786694593
501,138.190719,73.55942294532683
502,138.426454,71.72988336847203
503,138.672349,72.01172389105302
504,138.996173,72.31186786694593
505,139.264862,73.25267149353519
506,139.513166,72.9173381802542
507,139.759929,72.61373501672878
508,140.085087,72.66311516566545
509,140.341319,72.02932101384634
510,140.594425,72.31186786694593
511,140.843828,71.43215502844129
512,141.175498,72.31186786694593
513,141.467544,73.25267149353519
514,141.72581,72.66311516566545
515,141.969385,72.01172389105302
516,142.327271,72.61373501672878
517,142.575805,72.31186786694593
518,142.851466,72.66311516566545
519,143.096864,72.31186786694593
520,143.432407,72.31186786694593
521,143.666628,72.31186786694593
522,143.913499,72.31186786694593
523,144.164145,72.9173381802542
524,144.416596,72.31186786694593
525,144.774271,73.25267149353519
526,145.021865,72.01172389105302
527,145.271193,72.96739780293059
528,145.523333,71.3846544392901
529,145.77424,73.55942294532683
530,146.116861,72.94767713626871
531,146.491625,72.02932101384634
532,146.736045,72.31186786694593
533,146.982915,71.10481279494294
534,147.361357,72.61373501672878
535,147.6291,72.61373501672878
536,147.876883,72.61373501672878
537,148.115668,72.31186786694593
538,148.449407,72.01172389105302
539,148.691412,73.55942294532683
540,148.948536,72.31186786694593
541,149.18201,71.08927310521278
542,149.431708,74.51902492113179
543,149.760365,73.25267149353519
544,150.012236,73.55942294532683
545,150.257223,73.55942294532683
546,150.532385,72.61373501672878
547,150.849483,72.31186786694593
548,151.10225,72.33048070107844
549,151.351407,72.61373501672878
550,151.599552,73.55942294532683
551,151.846917,72.31186786694593
552,152.190019,72.31186786694593
553,152.482263,72.31186786694593
554,152.731579,72.61373501672878
555,152.978034,72.01172389105302
556,153.295708,73.55942294532683
557,153.546554,71.08927310521278
558,153.801995,73.55942294532683
559,154.043729,71.08927310521278
560,154.292022,73.55942294532683
561,154.626494,72.9173381802542
562,154.880192,72.31186786694593
563,155.12976,72.94767713626871
564,155.381368,73.25267149353519
565,155.709557,73.25267149353519
566,155.980543,72.96739780293059
567,156.298153,72.31186786694593
568,156.537865,73.55942294532683
569,156.927677,72.61373501672878
570,157.197196,73.27343641977745
571,157.435347,72.61373501672878
572,157.740921,74.17824978019395
573,158.076833,73.86794462394063
574,158.344658,71.43215502844129
575,158.617017,71.08927310521278
576,158.871638,73.86794462394063
577,159.196837,73.86794462394063
578,159.469634,72.61373501672878
579,159.721232,72.61373501672878
580,159.972224,72.01172389105302
581,160.287766,73.25267149353519
582,160.541755,72.31186786694593
583,160.786303,73.27343641977745
584,161.033266,71.08927310521278
585,161.39309,72.66311516566545
586,161.677894,72.01172389105302
587,161.934784,70.51712836361743
588,162.171415,71.68172574767937
589,162.512474,73.86794462394063
590,162.7765,72.31186786694593
591,163.023841,73.22269031288529
592,163.269368,72.61373501672878
593,163.634272,72.01172389105302
594,163.901663,72.61373501672878
595,164.139482,72.01172389105302
596,164.391707,72.61373501672878
597,164.724133,72.02932101384634
598,164.988447,72.01172389105302
599,165.217897,72.61373501672878
600,165.466941,73.25267149353519
601,165.714557,72.31186786694593
602,166.050958,72.02932101384634
603,166.295894,72.9173381802542
604,166.547849,72.31186786694593
605,166.825001,71.71329036349664
606,167.188077,73.25267149353519
607,167.477195,72.33048070107844
608,167.721006,71.3846544392901
609,167.99741,72.31186786694593
610,168.355769,72.9173381802542
611,168.599965,72.02932101384634
612,168.852208,72.02932101384634
613,169.096743,74.17824978019395
614,169.345526,72.01172389105302
615,169.680391,72.31186786694593
616,169.936842,73.86794462394063
617,170.185463,70.81013239279804
618,170.454798,72.02932101384634
619,170.785839,70.81013239279804
620,171.040794,72.96739780293059
621,171.292687,72.96739780293059
622,171.537732,72.31186786694593
