,time (s),surface tension (mN/m)
0,0.100968,71.26385078808691
1,0.346419,72.53557849293601
2,0.58853,73.74221037547608
3,0.82606,72.20252278866198
4,1.150481,72.18960357060641
5,1.393961,73.12891408710564
6,1.709731,73.43468162527402
7,1.946277,72.49050519946971
8,2.273409,73.14389876706906
9,2.585759,71.60388912561389
10,2.811315,71.60388912561389
11,3.060717,73.74221037547608
12,3.363884,71.26385078808691
13,3.652897,73.12891408710564
14,3.872495,71.90234937203665
15,4.132718,72.20252278866198
16,4.451815,71.60388912561389
17,4.713498,73.09750287995593
18,4.943697,74.70525782632794
19,5.191246,71.60388912561389
20,5.418764,70.68564749082752
21,5.749073,72.7931340121394
22,6.032564,73.14389876706906
23,6.277144,72.49050519946971
24,6.526751,73.74221037547608
25,6.836676,73.12891408710564
26,7.164847,72.53557849293601
27,7.404127,73.14389876706906
28,7.63795,72.18960357060641
29,7.958226,73.14389876706906
30,8.224091,71.60388912561389
31,8.473301,73.74221037547608
32,8.704322,73.43468162527402
33,8.94392,73.12891408710564
34,9.24198,72.49050519946971
35,9.479329,72.7931340121394
36,9.729872,73.74221037547608
37,9.971537,71.60388912561389
38,10.360853,73.43468162527402
39,10.64591,71.85779226680557
40,10.869263,73.74221037547608
41,11.101693,72.7931340121394
42,11.339687,71.90234937203665
43,11.673881,71.90234937203665
44,11.921381,72.7931340121394
45,12.145317,72.49050519946971
46,12.378558,71.90234937203665
47,12.631504,72.20252278866198
48,12.933909,73.14389876706906
49,13.189835,72.49050519946971
50,13.440675,72.7931340121394
51,13.675602,71.90234937203665
52,13.92772,72.18960357060641
53,14.292806,73.74221037547608
54,14.545183,71.90234937203665
55,14.781928,72.18960357060641
56,15.006336,71.55997458780503
57,15.260939,72.49050519946971
58,15.571131,72.18960357060641
59,15.82268,72.53557849293601
60,16.076126,71.90234937203665
61,16.300737,72.8388651688326
62,16.554816,71.90234937203665
63,16.870403,73.14389876706906
64,17.11415,71.90234937203665
65,17.35369,71.26385078808691
66,17.579273,72.18960357060641
67,17.957545,71.90234937203665
68,18.182709,71.30712939613558
69,18.430553,72.50442214239796
70,18.681253,72.50442214239796
71,18.929961,70.68564749082752
72,19.237175,72.50442214239796
73,19.474147,74.36260428952458
74,19.717052,73.74221037547608
75,19.941352,73.14389876706906
76,20.1647,71.60388912561389
77,20.483017,71.90234937203665
78,20.823594,73.12891408710564
79,21.062033,75.01958660793852
80,21.302902,73.14389876706906
81,21.625759,73.74221037547608
82,21.863205,72.7931340121394
83,22.110737,72.49050519946971
84,22.343368,71.27476999165519
85,22.587558,71.27476999165519
86,22.866951,72.7931340121394
87,23.134249,71.90234937203665
88,23.365214,73.12891408710564
89,23.609521,71.55997458780503
90,23.845724,73.74221037547608
91,24.1577,72.8388651688326
92,24.400681,72.53557849293601
93,24.648877,73.14389876706906
94,24.886095,71.60388912561389
95,25.121417,73.14389876706906
96,25.4206,71.90234937203665
97,25.67693,72.7931340121394
98,25.928468,73.74221037547608
99,26.18184,70.97936867329298
100,26.513759,71.55997458780503
101,26.769373,73.14389876706906
102,26.991254,72.20252278866198
103,27.228971,73.14389876706906
104,27.460688,73.14389876706906
105,27.776363,71.90234937203665
106,28.007629,71.60388912561389
107,28.246986,72.20252278866198
108,28.498974,73.14389876706906
109,28.742145,72.18960357060641
110,29.055922,74.70525782632794
111,29.287324,73.74221037547608
112,29.523093,73.14389876706906
113,29.746772,73.12891408710564
114,29.976597,73.12891408710564
115,30.290177,72.53557849293601
116,30.520358,72.20252278866198
117,30.753726,72.7931340121394
118,31.102579,72.7931340121394
119,31.477328,71.26385078808691
120,31.73406,72.20252278866198
121,31.983705,71.60388912561389
122,32.221689,71.27476999165519
123,32.448166,71.60388912561389
124,32.778596,72.20252278866198
125,33.010032,72.20252278866198
126,33.262201,72.53557849293601
127,33.510089,72.7931340121394
128,33.736456,72.53557849293601
129,34.051896,72.49050519946971
130,34.313689,71.90234937203665
131,34.556053,72.18960357060641
132,34.804185,72.20252278866198
133,35.028855,73.74221037547608
134,35.344007,72.18960357060641
135,35.58822,71.55997458780503
136,35.851606,72.7931340121394
137,36.09376,72.18960357060641
138,36.447359,73.14389876706906
139,36.706787,71.26385078808691
140,36.960196,71.60388912561389
141,37.20195,72.7931340121394
142,37.537434,72.20252278866198
143,37.775905,73.14389876706906
144,38.010368,73.74221037547608
145,38.251408,71.26385078808691
146,38.509109,70.68564749082752
147,38.823778,72.7931340121394
148,39.072191,70.68564749082752
149,39.362649,72.53557849293601
150,39.607549,73.74221037547608
151,39.918494,71.60388912561389
152,40.150648,72.20252278866198
153,40.401348,73.74221037547608
154,40.659044,70.68564749082752
155,41.024981,72.7931340121394
156,41.275879,72.18960357060641
157,41.615128,71.26385078808691
158,41.902865,72.7931340121394
159,42.22586,71.55997458780503
160,42.49445,72.18960357060641
161,42.742595,72.20252278866198
162,42.968731,72.7931340121394
163,43.216822,72.49050519946971
164,43.531375,72.20252278866198
165,43.808793,72.20252278866198
166,44.051571,72.18960357060641
167,44.292851,72.7931340121394
168,44.525877,71.90234937203665
169,44.834544,72.49050519946971
170,45.099106,72.18960357060641
171,45.345237,72.49050519946971
172,45.603763,71.90234937203665
173,45.941126,72.18960357060641
174,46.190871,72.20252278866198
175,46.43571,72.20252278866198
176,46.684341,72.49050519946971
177,46.93659,72.20252278866198
178,47.269029,72.20252278866198
179,47.500858,71.90234937203665
180,47.728819,71.26385078808691
181,47.979478,72.20252278866198
182,48.2351,72.18960357060641
183,48.56491,73.14389876706906
184,48.815707,72.20252278866198
185,49.051243,72.20252278866198
186,49.295236,71.27476999165519
187,49.526327,72.7931340121394
188,49.859807,72.7931340121394
189,50.113287,71.27476999165519
190,50.347625,73.09750287995593
191,50.592583,72.49050519946971
192,50.843995,73.74221037547608
193,51.170557,72.20252278866198
194,51.42414,73.14389876706906
195,51.655676,72.8388651688326
196,51.914728,70.68564749082752
197,52.352557,73.43468162527402
198,52.599185,72.7931340121394
199,52.825744,70.97936867329298
200,53.077821,72.20252278866198
201,53.302866,71.60388912561389
202,53.635497,71.27476999165519
203,53.869157,71.85779226680557
204,54.098281,72.49050519946971
205,54.346427,71.90234937203665
206,54.632382,71.60388912561389
207,54.954316,73.14389876706906
208,55.228406,71.90234937203665
209,55.456704,73.14389876706906
210,55.698063,72.7931340121394
211,55.936918,72.7931340121394
212,56.249248,72.49050519946971
213,56.510671,72.7931340121394
214,56.753753,73.74221037547608
215,56.983604,72.18960357060641
216,57.238931,71.85779226680557
217,57.54468,72.49050519946971
218,57.80363,72.20252278866198
219,58.047589,71.55997458780503
220,58.274874,72.7931340121394
221,58.517361,71.85779226680557
222,58.858589,72.7931340121394
223,59.111239,72.49050519946971
224,59.382695,71.85779226680557
225,59.634067,71.57186392899682
226,59.949901,71.27476999165519
227,60.182126,72.49050519946971
228,60.428129,72.7931340121394
229,60.657965,72.49050519946971
230,60.889891,72.7931340121394
231,61.215204,71.85779226680557
232,61.470141,72.49050519946971
233,61.707915,72.20252278866198
234,61.952823,72.20252278866198
235,62.184035,73.74221037547608
236,62.58746,70.97936867329298
237,62.838368,71.55997458780503
238,63.080054,73.74221037547608
239,63.308677,72.20252278866198
240,63.552046,72.7931340121394
241,63.945525,73.40362479005323
242,64.207285,72.1573164102819
243,64.438181,71.90234937203665
244,64.68577,72.50442214239796
245,65.016792,71.90234937203665
246,65.27438,71.57186392899682
247,65.527535,72.49050519946971
248,65.742194,71.90234937203665
249,65.984703,71.27476999165519
250,66.284288,72.7931340121394
251,66.52902,73.09750287995593
252,66.761758,72.7931340121394
253,66.985025,72.20252278866198
254,67.21718,72.50442214239796
255,67.548625,72.1573164102819
256,67.800758,73.40362479005323
257,68.04876,73.09750287995593
258,68.280162,71.57186392899682
259,68.506907,72.7931340121394
260,68.822997,72.1573164102819
261,69.071989,73.09750287995593
262,69.308821,72.1573164102819
263,69.541984,73.40362479005323
264,69.779861,71.85779226680557
265,70.092458,72.20252278866198
266,70.34617,71.85779226680557
267,70.586352,72.20252278866198
268,70.827375,72.7931340121394
269,71.07689,71.85779226680557
270,71.403181,71.85779226680557
271,71.644458,72.1573164102819
272,71.889638,71.27476999165519
273,72.140656,72.50442214239796
274,72.383771,71.27476999165519
275,72.714981,72.50442214239796
276,73.044109,71.57186392899682
277,73.288692,71.85779226680557
278,73.521392,72.1573164102819
279,73.829799,72.20252278866198
280,74.083805,72.50442214239796
281,74.316943,73.09750287995593
282,74.544549,71.87066308034332
283,74.792208,71.23072037955501
284,75.096174,72.1573164102819
285,75.369145,72.1573164102819
286,75.605867,71.27476999165519
287,75.838208,72.50442214239796
288,76.08084,71.87066308034332
289,76.397414,71.90234937203665
290,76.631152,71.87066308034332
291,76.882053,72.7931340121394
292,77.113181,72.4585597162858
293,77.342961,71.57186392899682
294,77.668617,72.1573164102819
295,77.909695,71.85779226680557
296,78.143301,72.4585597162858
297,78.377351,71.85779226680557
298,78.760159,72.1573164102819
299,79.012883,72.4585597162858
300,79.262892,73.40362479005323
301,79.506249,71.57186392899682
302,79.746963,71.27476999165519
303,80.06517,71.87066308034332
304,80.314933,71.87066308034332
305,80.565947,72.1573164102819
306,80.834831,72.1573164102819
307,81.162105,73.09750287995593
308,81.39753,73.40362479005323
309,81.628879,72.4585597162858
310,81.850769,72.1573164102819
311,82.084633,72.1573164102819
312,82.382515,71.87066308034332
313,82.626475,71.87066308034332
314,82.88429,72.1573164102819
315,83.145768,72.1573164102819
316,83.566669,72.4585597162858
317,83.815632,72.4585597162858
318,84.069193,70.94683373755662
319,84.317083,71.87066308034332
320,84.654698,71.85779226680557
321,84.907876,74.67549614043955
322,85.145978,71.23072037955501
323,85.406759,72.1573164102819
324,85.637774,71.85779226680557
325,85.966002,71.27476999165519
326,86.220758,71.57186392899682
327,86.472819,72.1573164102819
328,86.698625,71.87066308034332
329,86.948524,71.57186392899682
330,87.26762,73.71151284658792
331,87.502797,72.80806031500671
332,87.746075,70.64285969546451
333,87.995518,73.71151284658792
334,88.249096,72.4585597162858
335,88.570871,73.40362479005323
336,88.811429,72.80806031500671
337,89.05767,71.85779226680557
338,89.298769,70.64285969546451
339,89.540801,72.1573164102819
340,89.870408,71.23072037955501
341,90.10839,71.85779226680557
342,90.351988,72.80806031500671
343,90.600714,72.1573164102819
344,90.837443,72.4585597162858
345,91.158551,73.71151284658792
346,91.395484,72.1573164102819
347,91.648566,70.93595324381599
348,91.882069,71.27476999165519
349,92.127892,73.40362479005323
350,92.452275,72.4585597162858
351,92.716991,72.80806031500671
352,92.974467,71.27476999165519
353,93.21936,71.87066308034332
354,93.55508,72.80806031500671
355,93.901385,72.7931340121394
356,94.131926,71.57186392899682
357,94.37271,72.4585597162858
358,94.708832,73.09750287995593
359,94.970193,71.85779226680557
360,95.220804,71.27476999165519
361,95.4669,71.27476999165519
362,95.783155,71.27476999165519
363,96.032489,72.4585597162858
364,96.273377,72.80806031500671
365,96.513596,72.4585597162858
366,96.767752,71.27476999165519
367,97.089981,71.23072037955501
368,97.350702,72.4585597162858
369,97.597594,71.87066308034332
370,97.833444,73.09750287995593
371,98.086235,70.97936867329298
372,98.399306,72.1573164102819
373,98.651559,71.23072037955501
374,98.894834,72.1573164102819
375,99.144854,72.1573164102819
376,99.397708,72.4585597162858
377,99.736745,72.4585597162858
378,99.981716,71.85779226680557
379,100.213388,71.85779226680557
380,100.429447,72.76153499692124
381,100.672872,72.4585597162858
382,100.983122,72.4585597162858
383,101.237953,71.57186392899682
384,101.48562,72.4585597162858
385,101.740646,71.87066308034332
386,101.979886,71.27476999165519
387,102.299189,71.87066308034332
388,102.526954,72.4585597162858
389,102.759725,72.4585597162858
390,102.995138,71.57186392899682
391,103.237945,72.1573164102819
392,103.572574,71.87066308034332
393,103.810266,72.50442214239796
394,104.147716,71.87066308034332
395,104.427576,71.87066308034332
396,104.755458,72.1573164102819
397,104.994041,72.4585597162858
398,105.233229,73.40362479005323
399,105.473487,72.4585597162858
400,105.701802,72.4585597162858
401,106.018641,70.36041036188868
402,106.269005,71.87066308034332
403,106.522592,71.27476999165519
404,106.836368,71.87066308034332
405,107.248554,74.02118027198283
406,107.525647,72.4585597162858
407,107.770562,72.4585597162858
408,108.019996,71.87066308034332
409,108.379628,71.27476999165519
410,108.647994,72.4585597162858
411,108.90637,72.1573164102819
412,109.167796,72.1573164102819
413,109.530018,71.87066308034332
414,109.784184,71.87066308034332
415,110.032035,71.57186392899682
416,110.272162,71.87066308034332
417,110.604779,72.4585597162858
418,110.870969,71.87066308034332
419,111.192505,73.1134503043235
420,111.443552,70.36041036188868
421,111.757961,73.40362479005323
422,111.987489,72.4585597162858
423,112.234739,72.4585597162858
424,112.467529,73.09750287995593
425,112.695241,71.23072037955501
426,113.03574,72.4585597162858
427,113.279405,72.4585597162858
428,113.512803,70.94683373755662
429,113.760897,71.87066308034332
430,113.990851,72.1573164102819
431,114.305936,71.23072037955501
432,114.587984,71.85779226680557
433,114.870643,72.4585597162858
434,115.106358,71.52717351873345
435,115.418131,72.4585597162858
436,115.676401,72.4585597162858
437,115.912773,70.36041036188868
438,116.140436,71.85779226680557
439,116.368051,72.76153499692124
440,116.684426,72.4585597162858
441,116.919679,72.4585597162858
442,117.144847,71.87066308034332
443,117.383847,71.57186392899682
444,117.612438,72.1573164102819
445,117.92776,70.65278588774524
446,118.165978,72.4585597162858
447,118.417748,72.1573164102819
448,118.647016,72.4585597162858
449,118.878867,72.4585597162858
450,119.203636,72.4585597162858
451,119.443894,71.87066308034332
452,119.677156,72.47342797198529
453,119.919342,72.4585597162858
454,120.155574,71.87066308034332
455,120.449515,70.36041036188868
456,120.707736,72.1573164102819
457,120.937362,71.27476999165519
458,121.172422,72.50442214239796
459,121.403079,72.4585597162858
460,121.729315,72.1573164102819
461,121.973439,71.57186392899682
462,122.220367,72.4585597162858
463,122.467794,71.23072037955501
464,122.697138,72.1573164102819
465,123.025039,71.23072037955501
466,123.275585,72.1573164102819
467,123.515576,72.4585597162858
468,123.740143,71.27476999165519
469,123.974941,72.4585597162858
470,124.30416,70.65278588774524
471,124.539294,72.1573164102819
472,124.765287,70.36041036188868
473,125.045164,70.36041036188868
474,125.399341,70.64285969546451
475,125.6643,72.1573164102819
476,125.894048,70.65278588774524
477,126.140499,71.87066308034332
478,126.372505,72.1573164102819
479,126.68775,72.4585597162858
480,126.94334,72.1573164102819
481,127.161523,72.4585597162858
482,127.41258,71.85779226680557
483,127.670022,72.4585597162858
484,127.981088,72.1573164102819
485,128.228616,71.87066308034332
486,128.462311,71.27476999165519
487,128.696124,72.76153499692124
488,128.944672,72.80806031500671
489,129.275356,71.57186392899682
490,129.507166,71.87066308034332
491,129.741377,71.87066308034332
492,129.977024,71.85779226680557
493,130.213379,71.87066308034332
494,130.521561,70.36041036188868
495,130.780313,71.52717351873345
496,131.011819,71.85779226680557
497,131.253135,71.27476999165519
498,131.483017,71.27476999165519
499,131.781981,72.4585597162858
500,132.061556,71.87066308034332
501,132.288026,71.52717351873345
502,132.533807,73.40362479005323
503,132.773609,72.4585597162858
504,133.10844,71.27476999165519
505,133.368357,71.27476999165519
506,133.598149,71.27476999165519
507,133.836079,70.36041036188868
508,134.07106,71.57186392899682
509,134.370997,72.80806031500671
510,134.624602,71.27476999165519
511,134.866124,71.87066308034332
512,135.106293,71.57186392899682
513,135.541446,72.4585597162858
514,135.774301,72.20252278866198
515,136.007724,72.4585597162858
516,136.256534,71.23072037955501
517,136.494942,71.57186392899682
518,136.82072,71.87066308034332
519,137.054424,71.85779226680557
520,137.298082,72.4585597162858
521,137.554898,73.40362479005323
522,137.797894,71.85779226680557
523,138.114287,71.85779226680557
524,138.347929,71.85779226680557
525,138.590227,72.4585597162858
526,138.824132,72.1573164102819
527,139.051114,71.57186392899682
528,139.362104,71.85779226680557
529,139.591169,72.50442214239796
530,139.825942,71.57186392899682
531,140.055455,72.80806031500671
532,140.293761,72.1573164102819
533,140.59353,70.65278588774524
534,140.826456,72.50442214239796
535,141.068769,72.1573164102819
536,141.30471,71.57186392899682
537,141.541181,71.57186392899682
538,141.857216,71.57186392899682
539,142.100689,71.57186392899682
540,142.347433,70.94683373755662
541,142.591957,71.57186392899682
542,142.813042,70.36041036188868
543,143.117826,71.27476999165519
544,143.375113,72.1573164102819
545,143.626449,70.65278588774524
546,143.864061,70.36041036188868
547,144.088286,72.1573164102819
548,144.413877,72.4585597162858
549,144.653519,72.76153499692124
550,144.887837,73.71151284658792
551,145.132188,72.4585597162858
552,145.356731,70.06969484467345
553,145.6745,70.36041036188868
554,146.016299,72.1573164102819
555,146.256976,73.09750287995593
556,146.486616,71.27476999165519
557,146.825426,71.23072037955501
558,147.06983,72.1573164102819
559,147.306266,72.1573164102819
560,147.538364,71.52717351873345
561,147.779236,72.1573164102819
562,148.091774,70.36041036188868
563,148.347594,71.87066308034332
564,148.572009,71.27476999165519
565,148.827031,71.52717351873345
566,149.054599,71.23072037955501
567,149.424139,71.23072037955501
568,149.661322,70.94683373755662
569,149.897194,72.4585597162858
570,150.136919,71.57186392899682
571,150.377741,71.27476999165519
572,150.691083,72.1573164102819
573,150.932286,70.93595324381599
574,151.162413,71.57186392899682
575,151.415308,71.23072037955501
576,151.651359,71.52717351873345
577,151.979236,71.23072037955501
578,152.236017,71.27476999165519
579,152.475713,71.27476999165519
580,152.706859,71.27476999165519
581,152.962818,71.87066308034332
582,153.248876,72.4585597162858
583,153.491479,72.4585597162858
584,153.733399,71.23072037955501
585,153.992392,70.36041036188868
586,154.243555,71.85779226680557
587,154.572007,72.1573164102819
588,154.817079,72.4585597162858
589,155.061042,72.4585597162858
590,155.305769,70.65278588774524
591,155.555527,72.1573164102819
592,155.866731,71.23072037955501
593,156.233547,70.94683373755662
594,156.535847,71.85779226680557
595,156.78503,71.27476999165519
596,157.092592,71.27476999165519
597,157.350313,71.27476999165519
598,157.591844,71.27476999165519
599,157.842386,72.50442214239796
600,158.092189,71.85779226680557
601,158.40296,71.27476999165519
602,158.631251,71.87066308034332
603,158.87681,71.27476999165519
604,159.123697,72.20252278866198
605,159.365736,72.50442214239796
606,159.680942,71.23072037955501
607,159.9204,71.57186392899682
608,160.14905,70.65278588774524
609,160.374665,71.85779226680557
610,160.608941,71.23072037955501
611,160.90986,70.65278588774524
612,161.145003,71.23072037955501
613,161.376202,71.85779226680557
614,161.602046,70.06969484467345
615,161.830317,72.1573164102819
616,162.140895,71.85779226680557
617,162.380726,70.36041036188868
618,162.608983,70.65278588774524
619,162.844962,71.85779226680557
620,163.086913,71.85779226680557
621,163.418238,71.85779226680557
622,163.674437,70.36041036188868
623,163.932691,70.65278588774524
624,164.18032,71.85779226680557
625,164.493585,71.87066308034332
626,164.760301,70.65278588774524
627,164.998985,71.23072037955501
