,time (s),surface tension (mN/m)
0,0.0,40.55239608117756
1,0.23647,40.55239608117756
2,0.455304,39.94632587978122
3,0.715884,39.94632587978122
4,0.991036,40.044469873496695
5,1.283373,39.94632587978122
6,1.572868,40.745382587147404
7,1.84443,39.855761724872934
8,2.098642,41.16869218728323
9,2.422958,40.55239608117756
10,2.658266,40.93962558294827
11,2.877698,40.32646156495978
12,3.16381,40.55239608117756
13,3.500043,40.880090879115
14,3.742586,40.46010772143323
15,3.964439,41.3044683743559
16,4.221733,40.32646156495978
17,4.451727,39.35028353544166
18,4.800529,40.55239608117756
19,5.046265,40.880090879115
20,5.287824,40.880090879115
21,5.563908,39.94632587978122
22,5.894387,40.13577950837938
23,6.166255,40.880090879115
24,6.42846,40.13577950837938
25,6.733432,40.46010772143323
26,7.113837,40.880090879115
27,7.415988,40.26912316064508
28,7.652822,40.55239608117756
29,7.880715,40.13577950837938
30,8.107669,40.13577950837938
31,8.410166,39.855761724872934
32,8.675523,40.46010772143323
33,8.947362,39.94632587978122
34,9.21735,40.13577950837938
35,9.579168,39.94632587978122
36,9.830177,40.46010772143323
37,10.071635,40.46010772143323
38,10.404454,40.686800850344596
39,10.83186,39.72347341332464
40,11.074353,40.044469873496695
41,11.287435,39.72347341332464
42,11.551833,40.13577950837938
43,11.807932,39.668264332090885
44,12.127858,39.53627794917155
45,12.41091,40.46010772143323
46,12.639507,40.652330636854046
47,12.871008,40.044469873496695
48,13.104605,40.26912316064508
49,13.445431,40.46010772143323
50,13.720252,39.855761724872934
51,13.953322,40.46010772143323
52,14.185295,39.855761724872934
53,14.436894,39.855761724872934
54,14.784873,40.46010772143323
55,15.022212,39.53627794917155
56,15.2982,40.46010772143323
57,15.524537,40.044469873496695
58,15.753094,39.53627794917155
59,16.146966,40.13577950837938
60,16.404287,40.652330636854046
61,16.646819,40.46010772143323
62,16.869255,39.53627794917155
63,17.135804,39.855761724872934
64,17.439147,39.668264332090885
65,17.677598,40.46010772143323
66,17.929048,40.46010772143323
67,18.214863,40.044469873496695
68,18.531894,40.044469873496695
69,18.775055,40.13577950837938
70,19.007761,40.46010772143323
71,19.275829,40.46010772143323
72,19.610496,40.044469873496695
73,19.871506,39.855761724872934
74,20.108842,39.855761724872934
75,20.34688,40.46010772143323
76,20.986144,40.044469873496695
77,21.269802,39.855761724872934
78,21.539156,39.855761724872934
79,21.781916,39.63312889795083
80,22.10798,39.855761724872934
81,22.368334,40.23439902761677
82,22.616542,39.63312889795083
83,22.8347,40.46010772143323
84,23.10429,40.23439902761677
85,23.435405,39.63312889795083
86,23.678569,40.652330636854046
87,23.940253,39.3154297469326
88,24.188518,39.855761724872934
89,24.420492,39.72347341332464
90,24.752103,39.63312889795083
91,24.978813,39.63312889795083
92,25.210726,40.044469873496695
93,25.513902,40.044469873496695
94,25.828723,39.72347341332464
95,26.097319,40.044469873496695
96,26.337756,40.23439902761677
97,26.642091,40.044469873496695
98,26.969114,38.858732139944486
99,27.218557,39.63312889795083
100,27.471424,40.044469873496695
101,27.726035,39.3154297469326
102,28.092089,39.63312889795083
103,28.373816,39.53627794917155
104,28.613015,39.44666848982356
105,28.867262,39.44666848982356
106,29.200916,39.855761724872934
107,29.450726,39.855761724872934
108,29.715547,40.044469873496695
109,29.95898,39.44666848982356
110,30.277098,39.72347341332464
111,30.517493,40.044469873496695
112,30.811232,40.044469873496695
113,31.04069,40.044469873496695
114,31.385873,39.44666848982356
115,31.725666,39.44666848982356
116,31.983673,39.44666848982356
117,32.211855,39.44666848982356
118,32.538241,39.63312889795083
119,32.837343,39.261401898364035
120,33.066388,39.44666848982356
121,33.313867,40.044469873496695
122,33.663779,40.044469873496695
123,33.895302,40.044469873496695
124,34.124287,39.63312889795083
125,34.400818,39.44666848982356
126,34.771589,39.44666848982356
127,35.024434,39.44666848982356
128,35.296729,39.72347341332464
129,35.570504,39.44666848982356
130,35.894886,39.44666848982356
131,36.1602,39.44666848982356
132,36.385127,39.63312889795083
133,36.613162,39.44666848982356
134,36.97151,40.044469873496695
135,37.216208,40.044469873496695
136,37.471294,40.044469873496695
137,37.724343,39.63312889795083
138,37.946974,40.044469873496695
139,38.321671,39.04179597939323
140,38.559821,39.44666848982356
141,38.825998,39.855761724872934
142,39.058196,39.63312889795083
143,39.275932,39.44666848982356
144,39.619337,39.44666848982356
145,39.873146,39.13046400538875
146,40.161654,39.44666848982356
147,40.417645,39.13046400538875
148,40.729881,40.044469873496695
149,41.015121,39.63312889795083
150,41.246359,39.63312889795083
151,41.483944,39.63312889795083
152,41.806226,40.044469873496695
153,42.049087,39.63312889795083
154,42.301606,39.44666848982356
155,42.565065,38.858732139944486
156,42.899854,39.44666848982356
157,43.144763,39.63312889795083
158,43.38466,40.044469873496695
159,43.629086,39.63312889795083
160,43.992186,39.63312889795083
161,44.237663,39.13046400538875
162,44.508643,39.44666848982356
163,44.802051,39.44666848982356
164,45.102551,39.44666848982356
165,45.342552,39.13046400538875
166,45.573036,39.8207932125592
167,45.831364,40.044469873496695
168,46.073498,39.63312889795083
169,46.416699,39.63312889795083
170,46.659538,39.22603694002778
171,46.933822,39.44666848982356
172,47.16519,39.04179597939323
173,47.403135,39.63312889795083
174,47.732698,39.22603694002778
175,47.965005,39.3154297469326
176,48.252732,39.63312889795083
177,48.51358,38.858732139944486
178,48.821443,39.04179597939323
179,49.148263,39.63312889795083
180,49.396383,39.63312889795083
181,49.694202,39.8207932125592
182,50.016341,39.63312889795083
183,50.276681,39.04179597939323
184,50.50005,39.44666848982356
185,50.734857,39.3154297469326
186,51.002727,39.04179597939323
187,51.300702,39.63312889795083
188,51.590787,39.44666848982356
189,51.819456,39.44666848982356
190,52.068413,39.04179597939323
191,52.416899,39.63312889795083
192,52.6635,39.63312889795083
193,53.01766,39.04179597939323
194,53.262701,39.04179597939323
195,53.5849,39.44666848982356
196,53.840529,39.04179597939323
197,54.076161,39.8207932125592
198,54.320442,39.04179597939323
199,54.55381,39.22603694002778
200,54.900892,38.858732139944486
201,55.136678,39.04179597939323
202,55.361676,39.44666848982356
203,55.647771,39.44666848982356
204,55.885853,38.72883695289756
205,56.197365,39.04179597939323
206,56.476135,39.04179597939323
207,56.68394,39.04179597939323
208,56.918362,39.04179597939323
209,57.185832,38.72883695289756
210,57.515857,39.04179597939323
211,57.737729,39.22603694002778
212,58.03012,38.54724055313859
213,58.244633,39.22603694002778
214,58.467413,39.04179597939323
215,58.809489,38.91160103803921
216,59.071987,39.04179597939323
217,59.314028,38.858732139944486
218,59.565528,39.22603694002778
219,59.901558,39.04179597939323
220,60.145543,39.22603694002778
221,60.381943,39.22603694002778
222,60.632168,39.04179597939323
223,60.899423,39.04179597939323
224,61.206809,39.04179597939323
225,61.455774,39.04179597939323
226,61.694557,39.04179597939323
227,61.928714,39.04179597939323
228,62.197525,39.04179597939323
229,62.607315,39.22603694002778
230,62.884007,39.04179597939323
231,63.130632,39.22603694002778
232,63.574109,39.22603694002778
233,63.874451,38.823146719790124
234,64.159132,39.22603694002778
235,64.363105,39.04179597939323
236,64.621316,38.45941132266323
237,64.974487,38.823146719790124
238,65.247809,39.22603694002778
239,65.467722,38.64109728690835
240,65.756334,39.22603694002778
241,66.075108,39.04179597939323
242,66.331723,39.22603694002778
243,66.56217,39.22603694002778
244,66.799139,39.22603694002778
245,67.037685,39.22603694002778
246,67.362131,39.22603694002778
247,67.665356,38.72883695289756
248,67.905553,39.22603694002778
249,68.147242,39.04179597939323
250,68.500926,39.22603694002778
251,68.750064,39.22603694002778
252,68.984274,39.04179597939323
253,69.23557,39.22603694002778
254,69.460461,39.22603694002778
255,69.76887,39.04179597939323
256,70.04635,38.64109728690835
257,70.293502,38.15112069142561
258,70.549261,39.22603694002778
259,70.862143,38.91160103803921
260,71.092885,38.91160103803921
261,71.358593,39.22603694002778
262,71.593747,39.22603694002778
263,71.940159,38.91160103803921
264,72.180198,39.22603694002778
265,72.434003,38.823146719790124
266,72.675287,39.22603694002778
267,73.017889,38.64109728690835
268,73.26303,38.823146719790124
269,73.512663,38.823146719790124
270,73.865755,38.64109728690835
271,74.303462,39.22603694002778
272,74.533252,38.331350261028234
273,74.849573,39.22603694002778
274,75.079809,38.91160103803921
275,75.389997,38.45941132266323
276,75.673783,38.64109728690835
277,75.907394,38.64109728690835
278,76.186275,38.64109728690835
279,76.490534,38.64109728690835
280,76.753407,38.91160103803921
281,77.000554,39.04179597939323
282,77.267166,38.64109728690835
283,77.59191,38.91160103803921
284,77.834401,38.64109728690835
285,78.107964,38.823146719790124
286,78.346147,38.51194038570301
287,78.588661,38.45941132266323
288,78.920023,38.64109728690835
289,79.152815,38.45941132266323
290,79.368204,39.41146495442578
291,79.649407,38.64109728690835
292,79.883881,38.64109728690835
293,80.218283,38.823146719790124
294,80.486274,38.64109728690835
295,80.71949,38.823146719790124
296,81.011552,38.45941132266323
297,81.324392,38.823146719790124
298,81.552397,38.64109728690835
299,81.782538,38.64109728690835
300,82.032062,38.331350261028234
301,82.285036,37.5831979712218
302,82.589464,38.64109728690835
303,82.882909,39.22603694002778
304,83.116796,38.823146719790124
305,83.372652,38.823146719790124
306,83.693584,38.64109728690835
307,83.955384,38.823146719790124
308,84.37899,39.22603694002778
309,84.782693,38.823146719790124
310,85.042836,39.22603694002778
311,85.269298,39.22603694002778
312,85.524584,38.823146719790124
313,85.747075,38.823146719790124
314,86.090791,38.823146719790124
315,86.33521,38.51194038570301
316,86.564891,38.51194038570301
317,86.83569,38.823146719790124
318,87.071076,38.823146719790124
319,87.418899,38.64109728690835
320,87.678241,38.331350261028234
321,87.903406,38.69369157168495
322,88.171611,38.823146719790124
323,88.402085,38.64109728690835
324,88.730406,38.823146719790124
325,88.964557,38.823146719790124
326,89.227972,38.24359497251602
327,89.473285,38.823146719790124
328,89.716864,38.64109728690835
329,90.025338,38.64109728690835
330,90.257644,38.64109728690835
331,90.520646,38.423683108073504
332,90.807321,38.64109728690835
333,91.113476,38.64109728690835
334,91.389736,38.64109728690835
335,91.641851,38.823146719790124
336,91.889055,38.823146719790124
337,92.18728,38.51194038570301
338,92.432315,38.51194038570301
339,92.680603,38.51194038570301
340,92.911907,38.331350261028234
341,93.260506,37.9370343250855
342,93.500487,38.823146719790124
343,93.756458,38.823146719790124
344,93.993648,38.331350261028234
345,94.333676,37.9370343250855
346,94.563607,38.45941132266323
347,94.903425,38.64109728690835
348,95.233932,38.823146719790124
349,95.564171,38.51194038570301
350,95.872238,38.24359497251602
351,96.103489,38.64109728690835
352,96.369684,38.51194038570301
353,96.6861,38.331350261028234
354,96.923488,38.64109728690835
355,97.180985,38.45941132266323
356,97.451081,38.64109728690835
357,97.789867,38.24359497251602
358,98.050252,38.64109728690835
359,98.280977,38.331350261028234
360,98.558318,38.51194038570301
361,98.789143,38.823146719790124
362,99.119019,37.759543896919496
363,99.428447,38.331350261028234
364,99.685803,38.51194038570301
365,99.912626,38.11567887419483
366,100.227377,38.331350261028234
367,100.452869,38.24359497251602
368,100.740295,38.331350261028234
369,100.974185,38.11567887419483
370,101.299551,38.51194038570301
371,101.543086,38.331350261028234
372,101.832836,38.64109728690835
373,102.057489,38.11567887419483
374,102.404098,38.24359497251602
375,102.641629,38.423683108073504
376,102.896046,38.24359497251602
377,103.130266,38.423683108073504
378,103.380626,38.51194038570301
379,103.714347,38.51194038570301
380,103.986286,38.51194038570301
381,104.239255,38.423683108073504
382,104.487651,38.64109728690835
383,104.803682,38.24359497251602
384,105.054925,38.823146719790124
385,105.379431,38.24359497251602
386,105.67151,38.423683108073504
387,105.973805,38.423683108073504
388,106.246397,38.11567887419483
389,106.471821,38.64109728690835
390,106.71711,38.24359497251602
391,106.946633,38.24359497251602
392,107.253971,38.24359497251602
393,107.49138,38.51194038570301
394,107.766262,37.9370343250855
395,108.03703,38.11567887419483
396,108.374566,37.9370343250855
397,108.658243,38.24359497251602
398,108.886114,38.24359497251602
399,109.164733,39.00636659625452
400,109.495781,37.9370343250855
401,109.794168,38.24359497251602
402,110.039323,38.0646702840938
403,110.310543,37.9370343250855
404,110.639524,38.64109728690835
405,110.870401,38.64109728690835
406,111.150955,38.64109728690835
407,111.398641,37.9370343250855
408,111.62025,38.11567887419483
409,111.93108,38.51194038570301
410,112.161303,38.11567887419483
411,112.437498,38.51194038570301
412,112.670328,38.24359497251602
413,112.898944,38.423683108073504
414,113.208529,38.24359497251602
415,113.47725,38.11567887419483
416,113.761391,38.02872934394062
417,113.986143,38.423683108073504
418,114.33235,38.51194038570301
419,114.571185,38.11567887419483
420,114.849259,38.423683108073504
421,115.071272,38.423683108073504
422,115.299369,38.423683108073504
423,115.631574,38.11567887419483
424,115.976342,38.423683108073504
425,116.254704,38.24359497251602
426,116.49146,38.423683108073504
427,116.807462,38.423683108073504
428,117.083018,38.423683108073504
429,117.390669,38.51194038570301
430,117.614657,37.9370343250855
431,117.961069,38.24359497251602
432,118.185237,38.423683108073504
433,118.434929,38.24359497251602
434,118.699401,38.24359497251602
435,118.929262,37.9370343250855
436,119.248448,38.11567887419483
437,119.496715,37.9370343250855
438,119.829413,38.11567887419483
439,120.06263,37.54739799581599
440,120.367842,38.423683108073504
441,120.637929,38.02872934394062
442,120.922561,37.85081007964663
443,121.154177,38.24359497251602
444,121.495569,38.11567887419483
445,121.735693,38.423683108073504
446,121.978417,38.423683108073504
447,122.237879,38.24359497251602
448,122.48045,38.24359497251602
449,122.826266,38.423683108073504
450,123.078157,38.423683108073504
451,123.347352,37.9370343250855
452,123.633555,38.11567887419483
453,123.95064,37.9370343250855
454,124.200756,38.11567887419483
455,124.459514,38.11567887419483
456,124.692568,37.9370343250855
457,125.051984,37.9370343250855
458,125.283477,37.72389105933331
459,125.533258,37.85081007964663
460,125.767361,37.72389105933331
461,126.020938,38.423683108073504
462,126.358549,38.11567887419483
463,126.741431,38.423683108073504
464,127.014578,38.11567887419483
465,127.246639,38.423683108073504
466,127.586484,38.423683108073504
467,127.831761,38.423683108073504
468,128.061684,38.11567887419483
469,128.307283,38.24359497251602
470,128.57941,38.423683108073504
471,128.875516,37.54739799581599
472,129.127121,37.85081007964663
473,129.407121,37.72389105933331
474,129.663727,38.11567887419483
475,129.958763,37.72389105933331
476,130.236013,38.24359497251602
477,130.52163,38.423683108073504
478,130.816354,37.72389105933331
479,131.139743,37.85081007964663
480,131.420293,38.605451053650384
481,131.650129,38.29598976796687
482,131.886267,37.85081007964663
483,132.110344,38.423683108073504
484,132.424616,38.11567887419483
485,132.675714,37.9370343250855
486,132.903533,38.11567887419483
487,133.134078,38.11567887419483
488,133.40526,37.72389105933331
489,133.738517,38.423683108073504
490,134.036362,37.85081007964663
491,134.259351,37.72389105933331
492,134.489428,38.11567887419483
493,134.845198,38.02872934394062
494,135.074374,37.72389105933331
495,135.395042,38.11567887419483
496,135.663081,37.85081007964663
497,135.94177,38.11567887419483
498,136.176179,37.85081007964663
499,136.464384,37.85081007964663
500,136.685222,37.85081007964663
501,137.092401,37.54739799581599
502,137.417316,38.24359497251602
503,137.644996,38.11567887419483
504,137.873872,38.11567887419483
505,138.20936,38.423683108073504
506,138.481327,38.11567887419483
507,138.711272,37.72389105933331
508,139.00321,37.54739799581599
509,139.369679,37.54739799581599
510,139.60892,37.72389105933331
511,139.821217,38.02872934394062
512,140.052603,37.72389105933331
513,140.31395,37.72389105933331
514,140.715306,37.54739799581599
515,140.969246,37.54739799581599
516,141.218219,38.20780543108448
517,141.492837,38.29598976796687
518,141.807239,37.72389105933331
519,142.095809,38.29598976796687
520,142.322472,37.85081007964663
521,142.576964,38.605451053650384
522,142.906257,37.72389105933331
523,143.142461,37.72389105933331
524,143.399467,38.605451053650384
525,143.664464,37.72389105933331
526,143.885003,37.85081007964663
527,144.209651,38.02872934394062
528,144.440435,37.54739799581599
529,144.714018,37.72389105933331
530,145.020031,38.29598976796687
531,145.317696,37.85081007964663
532,145.581174,37.72389105933331
533,145.828427,37.54739799581599
534,146.11737,38.02872934394062
535,146.411307,37.72389105933331
536,146.708873,37.33618768406922
537,146.934492,37.72389105933331
538,147.186599,38.02872934394062
539,147.677195,38.02872934394062
540,147.963172,37.72389105933331
541,148.189266,37.85081007964663
542,148.462357,37.85081007964663
543,148.760224,38.02872934394062
544,149.041627,38.20780543108448
545,149.276585,37.54739799581599
546,149.531671,38.20780543108448
547,149.755351,38.20780543108448
548,150.051326,37.72389105933331
549,150.297565,37.72389105933331
550,150.570935,38.20780543108448
551,150.826042,38.20780543108448
552,151.178704,37.72389105933331
553,151.446859,37.72389105933331
554,151.687841,38.02872934394062
555,151.952994,38.02872934394062
556,152.269315,38.02872934394062
557,152.515149,37.72389105933331
558,152.779641,38.02872934394062
559,153.011636,37.72389105933331
560,153.247723,37.85081007964663
561,153.601191,38.02872934394062
562,153.85131,37.637893024843514
563,154.121913,38.02872934394062
564,154.351027,37.637893024843514
565,154.681492,37.90153167260885
566,154.931785,37.54739799581599
567,155.203801,37.72389105933331
568,155.458535,38.20780543108448
569,155.78389,37.72389105933331
570,156.022478,37.72389105933331
571,156.29493,38.20780543108448
572,156.510284,37.72389105933331
573,156.738463,37.90153167260885
574,157.09953,38.20780543108448
575,157.375104,37.85081007964663
576,157.607621,38.20780543108448
577,157.881861,37.72389105933331
578,158.237724,38.02872934394062
579,158.485052,37.90153167260885
580,158.740016,37.72389105933331
581,158.988994,37.72389105933331
582,159.235129,37.72389105933331
583,159.585989,37.33618768406922
584,159.838193,37.72389105933331
585,160.073094,37.637893024843514
586,160.308186,37.33618768406922
587,160.678082,37.90153167260885
588,160.906755,37.90153167260885
589,161.12141,37.33618768406922
590,161.366077,37.90153167260885
591,161.634788,37.33618768406922
592,161.995493,37.33618768406922
593,162.284998,37.90153167260885
594,162.535644,37.90153167260885
595,162.795484,37.33618768406922
596,163.116597,37.90153167260885
597,163.376033,37.90153167260885
598,163.641819,37.33618768406922
599,163.870227,37.33618768406922
600,164.194944,38.20780543108448
601,164.461014,37.511687840644406
602,164.686864,37.90153167260885
603,164.966733,37.33618768406922
604,165.286284,37.637893024843514
605,165.573192,38.02872934394062
606,165.794317,38.20780543108448
607,166.064781,37.90153167260885
608,166.393335,37.72389105933331
609,166.646856,37.511687840644406
610,166.884572,37.33618768406922
611,167.126987,37.33618768406922
612,167.48022,37.90153167260885
613,167.718161,37.637893024843514
614,167.980188,37.33618768406922
615,168.240755,37.33618768406922
616,168.692281,37.90153167260885
617,168.953979,37.992879920522014
618,169.196059,37.33618768406922
