,time (s),surface tension (mN/m)
0,0.002264,69.29615693974745
1,0.268433,70.58951670910506
2,0.499358,72.25204806601056
3,0.707486,70.24398428963626
4,0.938461,68.21006428081175
5,1.223264,70.89427189446612
6,1.420902,70.32369657273483
7,1.621149,72.25204806601056
8,1.820347,71.92980736817877
9,2.022107,70.07040185724777
10,2.212443,71.52714417254897
11,2.484566,70.07040185724777
12,2.733899,69.67864264968813
13,2.964868,69.06519246560946
14,3.211638,72.25204806601056
15,3.442433,69.37098364224981
16,3.713476,70.32369657273483
17,3.934277,71.92980736817877
18,4.135003,70.63662502522142
19,4.345656,71.26826277563461
20,4.552898,71.20973930979395
21,4.817638,73.5810936332211
22,5.012544,73.9129818267415
23,5.21353,69.06519246560946
24,5.40236,70.01267483745504
25,5.592136,70.01267483745504
26,5.791609,68.81490585527547
27,6.065452,72.25204806601056
28,6.366354,71.92980736817877
29,6.59893,70.63662502522142
30,6.845654,72.5762822242256
31,7.113754,72.51341396142318
32,7.331427,72.51341396142318
33,7.538711,70.32369657273483
34,7.74313,72.25204806601056
35,7.950535,69.37098364224981
36,8.180638,69.67864264968813
37,8.391934,70.95147533206035
38,8.582808,70.63662502522142
39,8.772251,71.3532180508777
40,8.959044,71.92980736817877
41,9.149541,71.92980736817877
42,9.3934,71.92980736817877
43,9.614429,70.01267483745504
44,9.838244,70.63662502522142
45,10.083524,70.63662502522142
46,10.366815,67.83333336304644
47,10.662117,70.01267483745504
48,10.896086,73.25125708964336
49,11.105803,69.31915283768964
50,11.317863,71.3532180508777
51,11.521217,71.92980736817877
52,11.777318,69.06519246560946
53,12.172566,74.24693817359909
54,12.361253,73.32049538349239
55,12.555409,74.93936752765322
56,12.751681,68.76125447897059
57,12.980055,69.93382907329955
58,13.194585,70.95147533206035
59,13.392834,72.51341396142318
60,13.619059,69.37098364224981
61,13.831832,72.5762822242256
62,14.194364,69.06519246560946
63,14.426891,72.5762822242256
64,14.625841,73.51512446819889
65,14.846548,72.51341396142318
66,15.037578,70.63662502522142
67,15.280188,73.5810936332211
68,15.472357,73.65177473635974
69,15.69063,67.83333336304644
70,15.909539,70.32369657273483
71,16.123824,72.25204806601056
72,16.358594,70.32369657273483
73,16.560298,72.5762822242256
74,16.763705,69.06519246560946
75,16.955537,68.76125447897059
76,17.16847,72.9912676056456
77,17.458257,72.51341396142318
78,17.695985,72.5762822242256
79,17.936567,70.63662502522142
80,18.166091,71.26826277563461
81,18.39686,72.25204806601056
82,18.647452,69.37098364224981
83,18.851977,70.01267483745504
84,19.068399,71.92980736817877
85,19.256691,71.60954432725123
86,19.443116,72.5762822242256
87,19.632567,71.60954432725123
88,19.864739,72.92345585133235
89,20.067294,69.06519246560946
90,20.273704,73.25125708964336
91,20.546775,71.52714417254897
92,20.766511,72.25204806601056
93,21.063186,71.92980736817877
94,21.297593,71.92980736817877
95,21.535432,70.01267483745504
96,21.767008,70.01267483745504
97,21.990705,70.32369657273483
98,22.255027,72.92345585133235
99,22.465802,69.06519246560946
100,22.678035,72.25204806601056
101,22.881921,71.92980736817877
102,23.094654,71.92980736817877
103,23.362164,68.76125447897059
104,23.564065,67.83333336304644
105,23.764955,74.26617351408636
106,23.954543,73.5810936332211
107,24.164886,68.76125447897059
108,24.450067,71.92980736817877
109,24.700854,74.26617351408636
110,24.934964,72.92345585133235
111,25.174467,72.1905524480529
112,25.423802,73.25125708964336
113,25.687024,73.25125708964336
114,25.896802,70.32369657273483
115,26.141055,68.76125447897059
116,26.335608,69.06519246560946
117,26.536904,74.17809803172699
118,26.77025,73.5810936332211
119,26.961845,72.66407503171607
120,27.148721,72.92345585133235
121,27.331765,71.2912432907037
122,27.564726,70.63662502522142
123,27.832872,68.76125447897059
124,28.065873,67.83333336304644
125,28.285202,73.5810936332211
126,28.522969,71.2912432907037
127,28.775864,68.76125447897059
128,29.058725,71.60954432725123
129,29.347811,69.06519246560946
130,29.589636,72.92345585133235
131,29.799242,70.63662502522142
132,29.981481,71.60954432725123
133,30.215241,72.33890144804677
134,30.406222,73.25125708964336
135,30.595861,73.5810936332211
136,30.818009,74.26617351408636
137,30.982584,69.06519246560946
138,31.201234,73.5810936332211
139,31.495985,71.60954432725123
140,31.744914,69.06519246560946
141,31.979639,69.70354482585088
142,32.224637,70.63662502522142
143,32.470451,72.92345585133235
144,32.721744,71.2912432907037
145,32.93059,70.97488875527152
146,33.135464,71.92980736817877
147,33.365137,73.25125708964336
148,33.540991,68.76125447897059
149,33.719787,69.06519246560946
150,33.932425,73.25125708964336
151,34.125377,73.25125708964336
152,34.311104,72.25204806601056
153,34.49294,73.25125708964336
154,34.678456,73.25125708964336
155,34.903618,70.01267483745504
156,35.19586,70.32369657273483
157,35.432762,74.26617351408636
158,35.657773,68.76125447897059
159,35.896476,71.92980736817877
160,36.133645,70.01267483745504
161,36.388637,71.60954432725123
162,36.605828,71.92980736817877
163,36.812398,71.60954432725123
164,37.032612,70.32369657273483
165,37.250652,68.76125447897059
166,37.505858,73.25125708964336
167,37.717402,70.01267483745504
168,37.90345,70.63662502522142
169,38.091304,70.63662502522142
170,38.281257,70.63662502522142
171,38.502962,71.92980736817877
172,38.778793,73.5810936332211
173,39.049775,70.32369657273483
174,39.276643,70.01267483745504
175,39.507506,71.60954432725123
176,39.747169,70.32369657273483
177,40.010342,74.26617351408636
178,40.270528,68.76125447897059
179,40.474519,73.5810936332211
180,40.659446,74.60172308632514
181,40.869495,70.01267483745504
182,41.155429,69.39629168640361
183,41.351422,69.06519246560946
184,41.558024,73.5810936332211
185,41.787124,73.25125708964336
186,42.013095,70.32369657273483
187,42.306067,71.60954432725123
188,42.573687,68.76125447897059
189,42.765383,69.06519246560946
190,42.986176,72.92345585133235
191,43.231978,70.32369657273483
192,43.481621,71.2912432907037
193,43.691559,71.92980736817877
194,43.895278,69.70354482585088
195,44.103243,74.60172308632514
196,44.312202,67.83333336304644
197,44.562194,71.60954432725123
198,44.770672,71.2912432907037
199,44.963049,71.60954432725123
200,45.161592,69.06519246560946
201,45.33006,73.5810936332211
202,45.539777,73.5810936332211
203,45.816235,70.32369657273483
204,46.064808,70.32369657273483
205,46.294681,69.37098364224981
206,46.5229,70.32369657273483
207,46.78075,70.32369657273483
208,47.026062,73.25125708964336
209,47.253457,70.63662502522142
210,47.426691,70.01267483745504
211,47.631632,71.92980736817877
212,47.845044,70.63662502522142
213,48.065438,72.92345585133235
214,48.276255,69.06519246560946
215,48.465235,70.32369657273483
216,48.654059,70.01267483745504
217,48.845393,69.37098364224981
218,49.032008,68.76125447897059
219,49.299456,71.2912432907037
220,49.529887,73.25125708964336
221,49.750995,68.76125447897059
222,49.995746,73.5810936332211
223,50.240869,71.60954432725123
224,50.513593,72.92345585133235
225,50.748628,71.60954432725123
226,50.95628,70.63662502522142
227,51.225352,73.5810936332211
228,51.433001,68.15888020200734
229,51.744415,71.60954432725123
230,51.954702,68.76125447897059
231,52.150596,70.01267483745504
232,52.347212,73.25125708964336
233,52.53545,72.92345585133235
234,52.732288,73.9129818267415
235,52.970663,70.32369657273483
236,53.185998,71.92980736817877
237,53.416213,69.70354482585088
238,53.657384,67.50829587064015
239,53.916427,71.60954432725123
240,54.199068,70.01267483745504
241,54.41782,71.60954432725123
242,54.616717,72.92345585133235
243,54.835013,70.01267483745504
244,55.045714,72.92345585133235
245,55.278659,73.5810936332211
246,55.481569,67.53628958342082
247,55.675485,68.76125447897059
248,55.876513,71.92980736817877
249,56.07109,71.60954432725123
250,56.253156,71.60954432725123
251,56.530323,68.76125447897059
252,56.777693,73.5810936332211
253,57.010594,73.25125708964336
254,57.241062,71.2912432907037
255,57.493317,71.92980736817877
256,57.733213,70.32369657273483
257,57.956057,71.2912432907037
258,58.162239,71.92980736817877
259,58.369377,69.37098364224981
260,58.580912,73.25125708964336
261,58.820569,73.25125708964336
262,59.01068,69.62555684251248
263,59.21152,70.01267483745504
264,59.404584,72.5762822242256
265,59.593596,73.25125708964336
266,59.76677,70.32369657273483
267,59.987121,71.92980736817877
268,60.210414,69.37098364224981
269,60.443838,68.45915517974278
270,60.688692,73.5810936332211
271,60.931767,72.92345585133235
272,61.249718,73.25125708964336
273,61.505372,70.63662502522142
