,time (s),surface tension (mN/m)
0,0.120507,43.69246194643343
1,0.370468,43.41627995060876
2,0.612261,42.92982687074302
3,0.853875,43.41627995060876
4,1.188337,43.80030531803485
5,1.438323,43.41627995060876
6,1.702177,44.29662209762889
7,1.962552,44.01598472851973
8,2.296399,42.55536456529036
9,2.56559,43.41627995060876
10,2.80908,42.55536456529036
11,3.054797,43.41627995060876
12,3.386778,43.69246194643343
13,3.640631,42.55536456529036
14,3.872357,43.14247923779654
15,4.10408,43.41627995060876
16,4.342318,43.14247923779654
17,4.658659,42.82482888867404
18,4.928138,43.41627995060876
19,5.175483,43.41627995060876
20,5.407207,43.41627995060876
21,5.645442,42.92982687074302
22,5.946168,44.29662209762889
23,6.193506,42.55536456529036
24,6.43175,42.82482888867404
25,6.694717,42.288211075297234
26,7.017569,43.41627995060876
27,7.268314,43.41627995060876
28,7.511662,42.55536456529036
29,7.992458,43.41627995060876
30,8.286323,43.971052318656504
31,8.535723,43.09663021923179
32,8.756828,43.69246194643343
33,8.998021,43.69246194643343
34,9.261201,42.82482888867404
35,9.602913,42.07855752007264
36,9.842361,43.69246194643343
37,10.105869,42.82482888867404
38,10.425887,43.69246194643343
39,10.789827,42.55536456529036
40,11.049706,42.45466729741193
41,11.291302,42.82482888867404
42,11.512464,42.07855752007264
43,11.753893,43.202914414840706
44,12.067498,43.09663021923179
45,12.316841,42.82482888867404
46,12.560191,43.09663021923179
47,12.810515,42.55536456529036
48,13.057857,43.69246194643343
49,13.38071,41.976308666239945
50,13.651913,42.82482888867404
51,13.893627,42.40728389538472
52,14.134842,43.14247923779654
53,14.377887,42.535857071624875
54,14.689506,40.95697570429178
55,14.940866,42.73299786994076
56,15.657649,42.46283199031451
57,15.973994,42.148668006372745
58,16.259094,42.36008796149597
59,16.522057,41.310744972796996
60,16.76029,41.310744972796996
61,17.076635,41.88279500447827
62,17.339602,42.36008796149597
63,17.57901,41.310744972796996
64,17.81847,42.148668006372745
65,18.059534,42.62899083069639
66,18.383306,42.73299786994076
67,18.622385,42.148668006372745
68,18.863531,42.36008796149597
69,19.10472,42.36008796149597
70,19.347959,42.36008796149597
71,19.66783,42.36008796149597
72,19.928889,42.62899083069639
73,20.170051,41.0513352131993
74,20.417398,41.78151889374861
75,20.771502,42.36008796149597
76,21.065715,42.62899083069639
77,21.319572,42.148668006372745
78,21.604672,42.36008796149597
79,21.945117,41.78151889374861
80,22.186302,42.0461528378068
81,22.408226,41.78151889374861
82,22.651508,41.310744972796996
83,22.890553,41.78151889374861
84,23.181967,41.88279500447827
85,23.441056,42.36008796149597
86,23.710536,42.36008796149597
87,23.957876,42.73299786994076
88,24.280731,42.62899083069639
89,24.543702,41.51915292143339
90,24.813186,42.36008796149597
91,25.060528,41.61920697272824
92,25.41022,41.51915292143339
93,25.63929,42.62899083069639
94,25.860214,42.36008796149597
95,26.121606,41.25902956832948
96,26.364978,41.78151889374861
97,26.675072,42.148668006372745
98,26.926074,42.093496101775656
99,27.20733,41.51915292143339
100,27.450408,41.88279500447827
101,27.790358,41.78151889374861
102,28.031666,42.36008796149597
103,28.292838,41.78151889374861
104,28.544185,43.21997967030523
105,28.867886,42.73299786994076
106,29.117291,40.3486514978883
107,29.378634,41.61920697272824
108,29.602199,42.093496101775656
109,29.861386,41.88279500447827
110,30.195142,42.62899083069639
111,30.44447,41.78151889374861
112,30.70753,41.51915292143339
113,30.964363,41.51915292143339
114,31.318462,41.51915292143339
115,31.634809,41.78151889374861
116,32.139691,42.62899083069639
117,32.443474,41.78151889374861
118,32.683104,42.0461528378068
119,32.92638,41.51915292143339
120,33.165819,42.093496101775656
121,33.40708,41.5723971497304
122,33.700558,41.51915292143339
123,33.949831,41.51915292143339
124,34.171107,41.51915292143339
125,34.432263,42.148668006372745
126,34.693533,41.310744972796996
127,35.014722,42.093496101775656
128,35.308989,41.310744972796996
129,35.578472,41.51915292143339
130,35.83233,41.0513352131993
131,36.179917,41.51915292143339
132,36.433772,41.0513352131993
133,36.689355,41.0513352131993
134,36.946157,41.78151889374861
135,37.309364,40.7941428040657
136,37.598107,41.51915292143339
137,37.876696,41.88279500447827
138,38.14617,41.25902956832948
139,38.462518,41.78151889374861
140,38.757514,41.0513352131993
141,39.017002,42.36008796149597
142,39.278494,41.88279500447827
143,39.61235,41.0513352131993
144,39.881746,40.7941428040657
145,40.123021,41.310744972796996
146,40.384513,41.78151889374861
147,40.718148,42.36008796149597
148,40.987472,41.0513352131993
149,41.249001,41.0513352131993
150,41.502705,41.310744972796996
151,41.954116,41.25902956832948
152,42.25865,41.78151889374861
153,42.554336,42.093496101775656
154,42.81597,41.0513352131993
155,43.159846,40.7941428040657
156,43.419413,41.310744972796996
157,43.733373,41.51915292143339
158,44.008385,41.0513352131993
159,44.393734,41.310744972796996
160,44.656706,41.51915292143339
161,44.894933,41.0513352131993
162,45.157905,41.51915292143339
163,45.512008,41.51915292143339
164,45.774985,41.51915292143339
165,46.044467,41.0513352131993
166,46.329567,41.21090797967372
167,46.67219,41.51915292143339
168,46.933528,41.0513352131993
169,47.172861,41.51915292143339
170,47.454545,41.0513352131993
171,47.817156,41.51915292143339
172,48.086625,41.78151889374861
173,48.380844,41.0513352131993
174,48.650326,39.103862659950025
175,48.988792,42.73299786994076
176,49.239748,40.442853730564565
177,49.482947,41.0513352131993
178,49.742326,41.88279500447827
179,50.096129,40.7941428040657
180,50.385623,42.093496101775656
181,50.647109,40.7941428040657
182,50.894397,41.310744972796996
183,51.226357,41.310744972796996
184,51.511459,41.25902956832948
185,51.796565,41.25902956832948
186,52.059532,41.21090797967372
187,52.435519,41.310744972796996
188,52.75565,40.49126197115474
189,53.220354,41.0513352131993
190,53.562476,40.49126197115474
191,53.822157,42.093496101775656
192,54.083613,41.0513352131993
193,54.347443,41.51915292143339
194,54.689796,41.0513352131993
195,54.969589,41.0513352131993
196,55.230838,40.95269712985235
197,55.492329,41.25902956832948
198,55.836248,40.696687211927475
199,56.075671,41.310744972796996
200,56.33696,40.7941428040657
201,56.598194,40.49126197115474
202,56.931803,41.78151889374861
203,57.185664,40.49126197115474
204,57.433017,41.51915292143339
205,57.686868,40.7941428040657
206,58.018836,41.0513352131993
207,58.288323,41.0513352131993
208,58.564064,41.0513352131993
209,58.805644,40.53914301435128
210,59.157747,41.0513352131993
211,59.40919,40.95269712985235
212,59.672516,41.51915292143339
213,59.9323,41.0513352131993
214,60.304045,41.0513352131993
215,60.567016,41.51915292143339
216,60.805245,41.0513352131993
217,61.121593,41.0513352131993
218,61.453555,40.49126197115474
219,61.738655,40.7941428040657
220,61.998702,41.0513352131993
221,62.262179,40.49126197115474
222,62.602147,41.51915292143339
223,62.904022,41.357878313283095
224,63.235643,39.89144667235373
225,63.498612,40.23813664900462
226,63.830582,40.696687211927475
227,64.084447,41.61920697272824
228,64.353931,41.0513352131993
229,64.616904,41.0513352131993
230,64.955382,41.0513352131993
231,65.218349,41.0513352131993
232,65.487835,41.51915292143339
233,65.757317,40.7941428040657
234,66.073665,40.49126197115474
235,66.358765,39.53913133310087
236,66.637351,40.696687211927475
237,66.891205,40.95269712985235
238,67.245298,41.25902956832948
239,67.536606,41.25902956832948
240,67.820596,40.7941428040657
241,68.062064,40.696687211927475
242,68.384123,41.0513352131993
243,68.638704,41.0513352131993
244,68.901671,40.49126197115474
245,69.17727,40.23813664900462
246,69.539581,40.7941428040657
247,69.81911,41.0513352131993
248,70.061275,41.51915292143339
249,70.346369,41.51915292143339
250,70.70389,40.23813664900462
251,70.96352,40.23813664900462
252,71.245063,41.51915292143339
253,71.506848,40.7941428040657
254,71.830811,40.49126197115474
255,72.112394,40.23813664900462
256,72.373674,40.23813664900462
257,72.633116,40.49126197115474
258,72.986913,40.23813664900462
259,73.261875,41.0513352131993
260,73.578216,40.23813664900462
261,73.90108,40.95269712985235
262,74.241281,40.7941428040657
263,74.504792,41.0513352131993
264,74.744184,40.696687211927475
265,75.005508,41.0513352131993
266,75.32933,40.95269712985235
267,75.589219,40.7941428040657
268,75.830592,40.49126197115474
269,76.111891,41.0513352131993
270,76.444378,40.7465634261666
271,76.691723,41.21090797967372
272,76.961203,40.7465634261666
273,77.230688,40.49126197115474
274,77.598823,40.23813664900462
275,77.888397,41.0513352131993
276,78.129685,40.696687211927475
277,78.371162,40.95269712985235
278,78.725187,41.51915292143339
279,79.017192,41.51915292143339
280,79.276761,40.49126197115474
281,79.524785,40.23813664900462
282,79.841123,40.23813664900462
283,80.126228,40.95269712985235
284,80.411339,40.23813664900462
285,80.691599,40.49126197115474
286,81.045731,40.49126197115474
287,81.578757,40.95269712985235
288,81.838326,40.49126197115474
289,82.16191,40.23813664900462
290,82.431387,38.57171262984284
291,82.694356,39.98716324038329
292,82.948207,40.14204686041478
293,83.31793,36.04966064447555
294,83.580899,40.95269712985235
295,83.850377,40.14204686041478
296,84.235721,40.49126197115474
297,84.667934,39.68974571637168
298,84.936915,41.0513352131993
299,85.178212,40.696687211927475
300,85.419561,40.95269712985235
301,85.781453,40.49126197115474
302,86.044425,40.95269712985235
303,86.313905,40.49126197115474
304,86.575967,40.23813664900462
305,86.907849,39.938871902470034
306,87.179322,40.95269712985235
307,87.438886,40.7465634261666
308,87.700412,40.95269712985235
309,88.044737,41.310744972796996
310,88.315065,40.95269712985235
311,88.578033,40.95269712985235
312,88.847511,40.49126197115474
313,89.163853,40.49126197115474
314,89.459051,41.0513352131993
315,89.718661,40.49126197115474
316,90.000208,40.95269712985235
317,90.334209,39.68974571637168
318,90.583538,40.7465634261666
319,90.845182,40.49126197115474
320,91.086346,39.938871902470034
321,91.327565,39.68974571637168
322,91.691527,41.21090797967372
323,91.951502,40.49126197115474
324,92.226672,40.23813664900462
325,92.480525,40.394012068455694
326,92.834617,40.23813664900462
327,93.108026,41.21090797967372
328,93.367456,40.49126197115474
329,93.630977,40.95269712985235
330,93.952862,40.49126197115474
331,94.194395,40.49126197115474
332,94.456148,40.696687211927475
333,94.787941,40.394012068455694
334,95.187114,40.7465634261666
335,95.450085,40.7465634261666
336,95.700777,40.95269712985235
337,95.964769,39.68974571637168
338,96.30325,40.95269712985235
339,96.588348,40.394012068455694
340,96.843955,40.696687211927475
341,97.085441,39.68974571637168
342,97.429302,41.21090797967372
343,97.688782,40.394012068455694
344,97.97021,40.49126197115474
345,98.23166,40.95269712985235
346,98.58664,40.95269712985235
347,98.856112,40.394012068455694
348,99.141217,40.14204686041478
349,99.405135,40.696687211927475
350,99.769103,40.696687211927475
351,100.048668,40.64813731797979
352,100.312186,40.394012068455694
353,100.571707,41.21090797967372
354,100.895872,40.49126197115474
355,101.155031,40.394012068455694
356,101.432785,40.394012068455694
357,101.702281,40.394012068455694
358,102.150105,40.7465634261666
359,102.43521,41.21090797967372
360,102.699708,40.14204686041478
361,102.981158,40.95269712985235
362,103.324921,39.938871902470034
363,103.584902,40.394012068455694
364,103.826357,41.21090797967372
365,104.069701,40.394012068455694
366,104.411511,39.938871902470034
367,104.691617,40.49126197115474
368,104.929631,41.21090797967372
369,105.23035,40.7465634261666
370,105.577938,39.938871902470034
371,105.855824,41.21090797967372
372,106.119613,40.49126197115474
373,106.359311,39.68974571637168
374,106.683277,40.95269712985235
375,106.945012,40.394012068455694
376,107.184331,40.95269712985235
377,107.425763,40.95269712985235
378,107.789604,40.14204686041478
379,108.059083,40.49126197115474
380,108.306423,40.394012068455694
381,108.575908,40.394012068455694
382,108.930006,40.394012068455694
383,109.181281,40.394012068455694
384,109.462804,40.394012068455694
385,109.704382,40.64813731797979
386,110.048396,40.394012068455694
387,110.307864,40.394012068455694
388,110.569398,40.64813731797979
389,110.850917,39.842982939011726
390,111.17594,40.64813731797979
391,111.429795,40.394012068455694
392,111.699274,40.14204686041478
393,111.96224,39.938871902470034
394,112.316342,40.1901337917502
395,112.596423,39.3940515024044
396,112.857841,41.21090797967372
397,113.099448,40.394012068455694
398,113.433123,40.394012068455694
399,113.72254,40.64813731797979
400,114.0043,40.1901337917502
401,114.290738,39.938871902470034
402,114.638323,40.394012068455694
403,114.923425,39.938871902470034
404,115.170769,40.1901337917502
405,115.424631,40.64813731797979
406,115.872352,40.394012068455694
407,116.191863,39.842982939011726
408,116.455307,40.64813731797979
409,116.71509,40.1901337917502
410,117.038228,39.938871902470034
411,117.338967,40.394012068455694
412,117.622641,40.64813731797979
413,117.876503,40.1901337917502
414,118.23059,40.394012068455694
415,118.509187,40.64813731797979
416,118.778667,39.938871902470034
417,119.02602,40.09309089128175
418,119.364452,40.394012068455694
419,119.607772,40.394012068455694
420,119.867365,40.64813731797979
421,120.130977,40.443555423429366
422,120.462961,40.64813731797979
423,120.744724,40.904446922153234
424,121.014203,40.394012068455694
425,121.314923,40.29684610121591
426,121.686667,40.69916116237072
427,121.956267,40.394012068455694
428,122.239766,40.64813731797979
429,122.499352,40.1901337917502
430,122.863916,40.64813731797979
431,123.143719,39.59403690879663
432,123.408068,40.09309089128175
433,123.699933,40.64813731797979
434,124.038401,40.904446922153234
435,124.301372,39.3940515024044
436,124.586483,40.09309089128175
437,124.855962,39.842982939011726
438,125.187926,40.09309089128175
439,125.434268,40.394012068455694
440,125.694081,39.842982939011726
441,125.937501,40.904446922153234
442,126.319682,40.394012068455694
443,126.639411,40.09309089128175
444,126.903702,40.64813731797979
445,127.17318,40.904446922153234
446,127.505169,40.09309089128175
447,127.774651,40.904446922153234
448,128.028522,40.904446922153234
449,128.291487,40.904446922153234
450,128.629963,40.1901337917502
451,128.892938,40.34534258567161
452,129.146804,39.64134135939045
453,129.409771,40.09309089128175
454,129.760287,40.904446922153234
455,130.031937,39.842982939011726
456,130.274433,39.842982939011726
457,130.552947,40.904446922153234
458,130.927318,40.904446922153234
459,131.178637,40.09309089128175
460,131.458199,40.09309089128175
461,131.722373,40.1901337917502
462,132.044307,40.904446922153234
463,132.285862,39.64134135939045
464,132.52786,40.09309089128175
465,132.778509,39.842982939011726
466,133.025854,40.394012068455694
467,133.36433,40.09309089128175
468,133.627297,39.842982939011726
469,133.928027,40.394012068455694
470,134.197509,39.842982939011726
471,134.563713,39.3940515024044
472,134.843377,40.09309089128175
473,135.10542,39.64134135939045
474,135.367427,40.443555423429366
475,135.711206,39.59403690879663
476,135.992238,40.09309089128175
477,136.277339,39.842982939011726
478,136.55593,40.64813731797979
479,136.975516,40.34534258567161
480,137.317362,39.3940515024044
481,137.597422,40.09309089128175
482,137.860846,40.64813731797979
483,138.200709,40.904446922153234
484,138.444314,39.842982939011726
485,138.704553,40.09309089128175
486,138.968274,39.64134135939045
487,139.328291,39.842982939011726
488,139.60972,40.09309089128175
489,139.857069,40.1901337917502
490,140.104411,39.842982939011726
491,140.442885,40.64813731797979
492,140.743617,40.09309089128175
493,140.990964,40.34534258567161
494,141.246206,39.3940515024044
495,141.586084,39.64134135939045
496,141.870138,40.34534258567161
497,142.129487,39.89075080384831
498,142.392922,39.842982939011726
499,142.725172,40.09309089128175
500,142.976606,39.842982939011726
501,143.223447,39.842982939011726
502,143.492928,39.842982939011726
503,143.858105,40.34534258567161
504,144.121879,40.34534258567161
505,144.40147,40.09309089128175
506,144.652676,40.09309089128175
507,144.986794,40.34534258567161
508,145.246053,39.3940515024044
509,145.507764,40.09309089128175
510,145.769192,40.34534258567161
511,146.066132,39.842982939011726
512,146.344723,39.842982939011726
513,146.6142,39.3940515024044
514,146.883682,40.09309089128175
515,147.246888,39.3940515024044
516,147.600982,40.09309089128175
517,147.848329,39.64134135939045
518,148.102184,40.09309089128175
519,148.434148,40.904446922153234
520,148.688009,39.64134135939045
521,148.988219,39.842982939011726
522,149.251193,39.054065883284224
523,149.601772,39.842982939011726
524,149.861668,40.69916116237072
525,150.123208,39.745018270460776
526,150.364632,39.89075080384831
527,150.708969,38.806769515922035
528,150.948336,38.564950933988065
529,151.209687,39.54478627194605
530,151.473197,39.842982939011726
531,151.795088,39.3940515024044
532,152.094605,40.09309089128175
533,152.361274,39.842982939011726
534,152.624237,40.09309089128175
535,152.962733,39.64134135939045
536,153.225698,40.09309089128175
537,153.510802,40.09309089128175
538,153.780284,39.842982939011726
539,154.149995,40.09309089128175
540,154.397347,40.09309089128175
541,154.681852,40.09309089128175
542,154.945261,40.09309089128175
543,155.299363,39.64134135939045
544,155.577951,40.09309089128175
545,155.831804,39.54478627194605
546,156.101302,39.64134135939045
547,156.44889,39.842982939011726
548,156.719752,40.64813731797979
549,156.979103,40.09309089128175
550,157.242478,40.34534258567161
551,157.574715,40.904446922153234
552,157.876346,40.34534258567161
553,158.203683,40.09309089128175
554,158.54216,39.29836851938129
555,158.889747,39.29836851938129
556,159.174872,39.54478627194605
557,159.459973,39.29836851938129
558,159.745069,39.29836851938129
559,160.102873,39.842982939011726
560,160.364336,39.64134135939045
561,160.624083,39.54478627194605
562,160.865393,40.34534258567161
563,161.189159,39.842982939011726
564,161.471042,39.29836851938129
565,161.730776,39.64134135939045
566,161.990093,40.09309089128175
567,162.344195,39.64134135939045
568,162.60597,40.09309089128175
569,162.885452,39.29836851938129
570,163.149004,39.54478627194605
571,163.491032,39.64134135939045
572,163.732591,40.09309089128175
573,163.992037,39.29836851938129
574,164.255658,40.09309089128175
575,164.615687,39.64134135939045
576,164.877069,39.79391620019873
577,165.142162,39.54478627194605
578,165.42726,40.09309089128175
579,165.803577,39.64134135939045
580,166.08549,39.79391620019873
581,166.325089,40.09309089128175
582,166.566503,39.3940515024044
583,166.930465,39.3940515024044
584,167.21224,39.54478627194605
585,167.474172,40.09309089128175
586,167.733751,39.842982939011726
587,168.057698,40.09309089128175
588,168.327179,39.29836851938129
589,168.690384,39.0992147709726
590,168.991106,39.54478627194605
591,169.331292,40.09309089128175
592,169.592982,40.34534258567161
593,169.83437,40.34534258567161
594,170.073638,39.842982939011726
595,170.417691,39.29836851938129
596,170.92083,39.79391620019873
597,171.200518,38.85557353430862
598,171.543963,39.0992147709726
599,171.829063,39.64134135939045
600,172.098547,39.54478627194605
601,172.345893,39.842982939011726
602,172.684371,39.345537623842304
603,172.962969,39.54478627194605
604,173.218058,40.09309089128175
605,173.477903,39.0992147709726
606,173.811928,39.842982939011726
607,174.083917,40.09309089128175
608,174.359838,39.29836851938129
609,174.629309,39.64134135939045
610,174.961275,39.345537623842304
611,175.230767,39.29836851938129
612,175.526397,39.79391620019873
613,175.787952,40.09309089128175
614,176.131946,40.34534258567161
615,176.431837,39.54478627194605
616,176.693769,39.79391620019873
617,176.955523,39.29836851938129
618,177.269363,39.54478627194605
619,177.544627,39.79391620019873
