,time (s),surface tension (mN/m)
0,0.009097,72.57439064904253
1,0.263327,72.27078072940338
2,0.493874,70.4731838047559
3,0.706791,72.27078072940338
4,0.928901,71.9926343523284
5,1.200133,72.27078072940338
6,1.430993,72.27078072940338
7,1.66223,71.69145816972672
8,1.877122,71.63847193715769
9,2.084577,71.63847193715769
10,2.333913,72.27078072940338
11,2.535948,72.27078072940338
12,2.729635,72.57439064904253
13,2.931877,72.87975832189585
14,3.144153,72.27078072940338
15,3.4349,71.63847193715769
16,3.666163,72.27078072940338
17,3.907913,72.27078072940338
18,4.146718,72.87975832189585
19,4.396306,72.27078072940338
20,4.659031,71.33971140688989
21,4.878272,71.63847193715769
22,5.092954,72.27078072940338
23,5.303935,72.27078072940338
24,5.530935,72.27078072940338
25,5.803889,72.27078072940338
26,6.009728,72.27078072940338
27,6.213286,70.76785229866223
28,6.406896,71.33971140688989
29,6.598053,72.27078072940338
30,6.785228,71.69145816972672
31,7.01886,72.87975832189585
32,7.25753,72.57439064904253
33,7.499523,72.57439064904253
34,7.729554,71.06421796459651
35,7.981468,71.33971140688989
36,8.268012,71.63847193715769
37,8.489974,71.33971140688989
38,8.703707,72.57439064904253
39,8.932427,71.04266176311572
40,9.128855,72.27078072940338
41,9.408403,72.27078072940338
42,9.637872,72.27078072940338
43,9.868862,72.27078072940338
44,10.063113,72.27078072940338
45,10.2633,72.87975832189585
46,10.512232,71.33971140688989
47,10.706687,73.83446543725721
48,10.897304,71.96891548172395
49,11.127242,72.87975832189585
50,11.372519,71.63847193715769
51,11.669466,72.27078072940338
52,11.916526,73.18689694765757
53,12.147026,71.33971140688989
54,12.358737,72.57439064904253
55,12.581168,71.04266176311572
56,12.871553,71.63847193715769
57,13.084138,71.33971140688989
58,13.304849,70.71613304777016
59,13.528531,70.4731838047559
60,13.751734,71.63847193715769
61,13.983994,71.93895614295722
62,14.195799,72.27078072940338
63,14.389401,72.87975832189585
64,14.585518,72.87975832189585
65,14.77525,71.93895614295722
66,15.051305,71.33971140688989
67,15.309115,73.4958198457269
68,15.541775,72.87975832189585
69,15.799732,73.18689694765757
70,16.041176,72.87975832189585
71,16.302306,72.87975832189585
72,16.516125,71.3622934890799
73,16.763334,72.87975832189585
74,16.972412,72.87975832189585
75,17.202274,73.18689694765757
76,17.471622,72.87975832189585
77,17.677056,72.27078072940338
78,17.868332,71.63847193715769
79,18.065552,71.33971140688989
80,18.267136,71.63847193715769
81,18.458433,72.87975832189585
82,18.691534,72.29555419799493
83,18.900599,72.87975832189585
84,19.1633,71.63847193715769
85,19.41417,71.93895614295722
86,19.6524,70.14927254350827
87,19.95229,72.87975832189585
88,20.169096,71.9926343523284
89,20.382921,71.01182261625581
90,20.730801,72.87975832189585
91,20.943138,72.29555419799493
92,21.201216,73.18689694765757
93,21.449701,71.93895614295722
94,21.693931,71.33971140688989
95,21.896006,71.33971140688989
96,22.089289,71.93895614295722
97,22.335637,71.33971140688989
98,22.53002,72.87975832189585
99,22.71956,72.29555419799493
100,22.902837,70.14927254350827
101,23.149956,72.57439064904253
102,23.445555,71.33971140688989
103,23.684406,70.42213380474718
104,23.932349,72.87975832189585
105,24.172576,71.93895614295722
106,24.381064,72.27078072940338
107,24.655912,72.57439064904253
108,24.895072,71.33971140688989
109,25.12355,71.63847193715769
110,25.333741,71.33971140688989
111,25.612218,71.63847193715769
112,25.849119,72.57439064904253
113,26.050975,72.24117692874887
114,26.245786,71.93895614295722
115,26.436428,70.42213380474718
116,26.635215,71.33971140688989
117,26.837116,71.01182261625581
118,27.165699,71.63847193715769
119,27.402738,72.27078072940338
120,27.645733,70.71613304777016
121,27.890078,72.27078072940338
122,28.111506,72.87975832189585
123,28.387513,73.18689694765757
124,28.622902,72.87975832189585
125,28.893873,72.57439064904253
126,29.093596,71.33971140688989
127,29.319801,72.6002308006118
128,29.622063,70.42213380474718
129,29.832105,69.85762999834151
130,30.041106,73.4958198457269
131,30.235027,70.71613304777016
132,30.437047,72.29555419799493
133,30.687414,71.93895614295722
134,30.929007,72.87975832189585
135,31.12789,70.71613304777016
136,31.356867,72.87975832189585
137,31.591686,72.87975832189585
138,31.881083,70.71613304777016
139,32.120879,69.85762999834151
140,32.359608,71.63847193715769
141,32.577519,73.4958198457269
142,32.795834,72.57439064904253
143,33.05652,71.63847193715769
144,33.268252,71.63847193715769
145,33.509045,72.87975832189585
146,33.726246,71.33971140688989
147,33.94561,72.6002308006118
148,34.192998,70.42213380474718
149,34.389543,72.87975832189585
150,34.590568,70.42213380474718
151,34.799753,71.33971140688989
152,34.976051,71.33971140688989
153,35.266603,71.93895614295722
154,35.503123,72.6002308006118
155,35.767715,72.87975832189585
156,35.999081,73.4958198457269
157,36.24288,71.01182261625581
158,36.541879,72.6002308006118
159,36.75281,71.93895614295722
160,36.998653,71.93895614295722
161,37.207824,72.87975832189585
162,37.432774,72.24117692874887
163,37.696157,72.29555419799493
164,37.898139,70.42213380474718
165,38.087807,72.87975832189585
166,38.28808,72.6002308006118
167,38.487124,71.01182261625581
168,38.675806,71.93895614295722
169,38.917731,71.06421796459651
170,39.144928,71.01182261625581
171,39.397429,72.29555419799493
172,39.639876,73.80654045648858
173,39.886086,70.42213380474718
174,40.17455,73.18689694765757
175,40.421063,70.1298123831784
176,40.630611,71.33971140688989
177,40.838725,73.18689694765757
178,41.05224,71.63847193715769
179,41.360341,71.33971140688989
180,41.575989,71.63847193715769
181,41.773803,72.24117692874887
182,41.964078,71.63847193715769
183,42.157721,73.4958198457269
184,42.359256,72.87975832189585
185,42.597822,72.6002308006118
186,42.832108,72.87975832189585
187,43.11482,71.33971140688989
188,43.345713,71.63847193715769
189,43.594864,72.27078072940338
190,43.89943,71.33971140688989
191,44.117188,71.63847193715769
192,44.325645,71.01182261625581
193,44.533005,71.33971140688989
194,44.785235,72.6002308006118
195,45.028356,73.18689694765757
196,45.24975,71.63847193715769
197,45.4707,70.71613304777016
198,45.660676,71.63847193715769
199,45.852396,71.63847193715769
200,46.090797,71.63847193715769
201,46.290076,72.87975832189585
202,46.481622,71.63847193715769
203,46.682516,71.01182261625581
204,46.906534,72.87975832189585
205,47.184126,71.93895614295722
206,47.440761,72.87975832189585
207,47.688422,71.3622934890799
208,47.938774,72.87975832189585
209,48.149476,72.57439064904253
210,48.421392,71.33971140688989
211,48.671736,73.18689694765757
212,48.899241,71.01182261625581
213,49.120361,71.01182261625581
214,49.357224,71.63847193715769
215,49.592831,71.93895614295722
216,49.802719,71.33971140688989
217,50.003397,71.63847193715769
218,50.213959,71.63847193715769
219,50.407001,72.87975832189585
220,50.646875,71.01182261625581
221,50.839101,72.29555419799493
222,51.060366,71.33971140688989
223,51.429304,70.71613304777016
224,51.723066,71.93895614295722
225,51.972403,70.42213380474718
226,52.219554,71.33971140688989
227,52.429135,71.63847193715769
228,52.63847,71.93895614295722
229,52.922279,72.24117692874887
230,53.149459,71.93895614295722
231,53.409735,71.3622934890799
232,53.617709,71.63847193715769
233,53.810423,71.01182261625581
234,54.050879,71.33971140688989
235,54.24995,72.87975832189585
236,54.451819,71.3622934890799
237,54.640479,71.06421796459651
238,54.873023,71.01182261625581
239,55.174971,71.01182261625581
240,55.418749,70.71613304777016
241,55.664989,71.66209167313063
242,55.896776,72.87975832189585
243,56.122347,71.3622934890799
244,56.369573,71.93895614295722
245,56.6477,72.24117692874887
246,56.855017,72.57439064904253
247,57.070495,70.71613304777016
248,57.297845,70.71613304777016
249,57.549349,71.93895614295722
250,57.756492,71.93895614295722
251,57.946702,71.93895614295722
252,58.145318,72.24117692874887
253,58.33549,71.01182261625581
254,58.529791,71.93895614295722
255,58.796902,71.01182261625581
256,59.069646,71.93895614295722
257,59.35488,71.93895614295722
258,59.612904,71.93895614295722
259,59.902978,72.24117692874887
260,60.113931,70.42213380474718
261,60.342906,72.27078072940338
262,60.618154,72.87975832189585
263,60.821782,70.42213380474718
264,61.103112,71.93895614295722
265,61.34274,71.93895614295722
266,61.536395,71.01182261625581
267,61.760733,72.24117692874887
268,61.958196,71.93895614295722
269,62.206347,71.01182261625581
270,62.41319,70.42213380474718
271,62.615699,72.90667737280992
272,62.85134,71.06421796459651
273,63.101527,72.90667737280992
274,63.39271,72.90667737280992
275,63.666148,73.4958198457269
276,63.939837,72.24117692874887
277,64.161024,71.93895614295722
278,64.457522,71.01182261625581
279,64.693095,72.24117692874887
280,64.906741,71.63847193715769
281,65.158479,72.87975832189585
282,65.377207,71.66209167313063
283,65.625519,72.24117692874887
284,65.823852,72.24117692874887
285,66.027974,71.3622934890799
286,66.232054,71.01182261625581
287,66.425068,71.93895614295722
288,66.614402,71.63847193715769
289,66.84988,71.93895614295722
290,67.087263,71.93895614295722
291,67.326325,72.24117692874887
292,67.573049,72.87975832189585
293,67.818412,71.01182261625581
294,68.114295,71.93895614295722
295,68.326294,71.01182261625581
296,68.552889,71.93895614295722
297,68.818585,71.93895614295722
298,69.01502,71.01182261625581
299,69.296693,71.01182261625581
300,69.515871,72.87975832189585
301,69.715599,71.01182261625581
302,69.905855,71.3622934890799
303,70.100702,71.93895614295722
304,70.356943,71.93895614295722
305,70.558977,71.01182261625581
306,70.748425,71.01182261625581
307,70.968868,72.5451473156445
308,71.224287,71.93895614295722
309,71.504122,72.5451473156445
310,71.791109,72.5451473156445
311,72.09241,71.93895614295722
312,72.328411,72.24117692874887
313,72.608117,70.44259186448926
314,72.858145,71.01182261625581
315,73.064626,71.66209167313063
316,73.287673,70.14927254350827
317,73.526382,70.71613304777016
318,73.776868,72.24117692874887
319,73.996893,72.24117692874887
320,74.198209,71.01182261625581
321,74.402546,70.0981260477979
322,74.604223,72.24117692874887
323,74.851619,71.01182261625581
324,75.030008,70.71613304777016
325,75.245667,70.44259186448926
326,75.496286,72.24117692874887
327,75.73467,71.93895614295722
328,76.014467,71.30921512670169
329,76.337688,71.01182261625581
330,76.535592,72.5451473156445
331,76.756961,71.93895614295722
332,77.011389,72.5451473156445
333,77.278503,71.01182261625581
334,77.492332,71.01182261625581
335,77.714302,69.85762999834151
336,77.90827,71.93895614295722
337,78.11095,71.60832330928815
338,78.351577,71.93895614295722
339,78.554832,71.93895614295722
340,78.748229,71.93895614295722
341,78.933787,70.0981260477979
342,79.163166,71.60832330928815
343,79.493819,73.18689694765757
344,79.744985,71.01182261625581
345,79.994363,70.73760047664814
346,80.243134,70.71613304777016
347,80.449601,71.66209167313063
348,80.712016,73.18689694765757
349,80.975234,71.30921512670169
350,81.183208,71.01182261625581
351,81.402552,71.01182261625581
352,81.627481,71.30921512670169
353,81.873972,71.93895614295722
354,82.064804,72.5451473156445
355,82.256427,72.24117692874887
356,82.519629,72.24117692874887
357,82.710037,71.01182261625581
358,82.947073,71.60832330928815
359,83.171576,72.5451473156445
360,83.41921,70.73760047664814
361,83.650039,71.01182261625581
362,83.898987,71.93895614295722
363,84.190565,71.01182261625581
364,84.41,72.24117692874887
365,84.631845,71.60832330928815
366,84.885044,71.3622934890799
367,85.095362,72.24117692874887
368,85.391267,70.44259186448926
369,85.592085,71.06421796459651
370,85.796481,71.60832330928815
371,85.993089,72.24117692874887
372,86.180591,71.93895614295722
373,86.378615,72.24117692874887
374,86.622488,70.73760047664814
375,86.825643,72.5451473156445
376,87.016148,71.01182261625581
377,87.254433,70.44259186448926
378,87.494166,71.60832330928815
379,87.799254,71.01182261625581
380,88.039136,72.24117692874887
381,88.285994,71.66209167313063
382,88.500051,71.01182261625581
383,88.724333,72.5451473156445
384,89.009146,72.5451473156445
385,89.227032,71.60832330928815
386,89.443387,71.01182261625581
387,89.682005,70.39077802122489
388,89.916064,71.60832330928815
389,90.160225,71.01182261625581
390,90.36813,72.5451473156445
391,90.568837,71.30921512670169
392,90.768761,71.3622934890799
393,90.958848,71.30921512670169
394,91.14121,71.30921512670169
395,91.409244,71.63847193715769
396,91.658216,71.93895614295722
397,91.958641,70.44259186448926
398,92.194142,71.01182261625581
399,92.461754,71.01182261625581
400,92.782106,71.30921512670169
401,93.028233,71.60832330928815
402,93.236463,70.44259186448926
403,93.45947,71.01182261625581
404,93.727512,69.8071440957007
405,93.932136,72.5451473156445
406,94.136697,71.30921512670169
407,94.326908,71.30921512670169
408,94.528221,72.5451473156445
409,94.719093,71.01182261625581
410,94.960644,71.96362543348333
411,95.194794,71.60832330928815
412,95.446835,70.44259186448926
413,95.69645,72.24117692874887
414,95.946893,71.60832330928815
415,96.209597,71.01182261625581
416,96.425505,71.01182261625581
417,96.639772,72.24117692874887
418,96.892521,71.01182261625581
419,97.097602,71.30921512670169
420,97.377758,70.0981260477979
421,97.587355,71.30921512670169
422,97.824529,71.30921512670169
423,98.021066,71.60832330928815
424,98.223388,71.01182261625581
425,98.448076,71.30921512670169
426,98.666519,72.5451473156445
427,98.866613,72.24117692874887
428,99.057787,72.5451473156445
429,99.302531,71.60832330928815
430,99.647353,72.5451473156445
431,99.89823,71.30921512670169
432,100.125152,70.44259186448926
433,100.353734,71.01182261625581
434,100.564156,71.60832330928815
435,100.817507,71.60832330928815
436,101.053003,72.5451473156445
437,101.25623,71.30921512670169
438,101.480743,72.24117692874887
439,101.70166,72.24117692874887
440,101.952145,71.60832330928815
441,102.15416,71.01182261625581
442,102.353936,70.39077802122489
443,102.550158,71.60832330928815
444,102.740616,71.60832330928815
445,102.94918,72.5451473156445
446,103.233569,70.39077802122489
447,103.469633,71.60832330928815
448,103.715324,71.30921512670169
449,103.94581,71.03431100812018
450,104.177134,71.01182261625581
451,104.465699,71.60832330928815
452,104.722809,71.60832330928815
453,104.975606,71.60832330928815
454,105.177708,72.24117692874887
455,105.397346,71.30921512670169
456,105.681242,71.60832330928815
457,105.894622,71.60832330928815
458,106.095467,71.60832330928815
459,106.290839,71.60832330928815
460,106.491361,72.5451473156445
461,106.724005,72.5451473156445
462,106.922469,70.0981260477979
463,107.103674,71.60832330928815
464,107.328984,72.5451473156445
465,107.569836,71.60832330928815
466,107.870558,71.01182261625581
467,108.130141,70.0981260477979
468,108.377235,71.03431100812018
469,108.582499,71.90916000908689
470,108.79556,71.30921512670169
471,109.103216,71.30921512670169
472,109.312422,71.60832330928815
473,109.527383,72.5451473156445
474,109.741521,70.0981260477979
475,109.94157,69.82652556277182
476,110.17457,71.60832330928815
477,110.381394,72.24117692874887
478,110.575923,70.39077802122489
479,110.774327,70.68511246238694
480,110.966537,72.85088044265119
481,111.236572,71.30921512670169
482,111.504794,71.03431100812018
483,111.755833,71.90916000908689
484,111.989169,71.60832330928815
485,112.27213,71.33273620101096
486,112.487006,71.30921512670169
487,112.699021,70.39077802122489
488,112.948746,71.60832330928815
489,113.195151,71.60832330928815
490,113.470775,71.60832330928815
491,113.696937,71.60832330928815
492,113.897128,72.21173818728394
493,114.101592,70.39077802122489
494,114.301345,70.39077802122489
495,114.532795,70.39077802122489
496,114.739371,71.60832330928815
497,114.928783,71.60832330928815
498,115.160117,71.60832330928815
499,115.422415,71.01182261625581
500,115.710895,71.01182261625581
501,115.956277,71.03431100812018
502,116.192863,71.60832330928815
503,116.413905,72.85088044265119
504,116.628022,71.60832330928815
505,116.911517,71.60832330928815
506,117.144502,71.03431100812018
507,117.350196,70.39077802122489
508,117.581587,71.60832330928815
509,117.771101,73.15838956793054
510,118.0463,72.21173818728394
511,118.267632,71.90916000908689
512,118.464546,71.60832330928815
513,118.658711,71.63288891260967
514,118.852714,71.60832330928815
515,119.106254,71.30921512670169
516,119.324666,71.60832330928815
517,119.570534,71.60832330928815
518,119.818716,71.60832330928815
519,120.066955,71.30921512670169
520,120.380442,70.68511246238694
521,120.598856,71.63288891260967
522,120.821002,71.60832330928815
523,121.081125,72.21173818728394
524,121.31928,71.33273620101096
525,121.572362,71.60832330928815
526,121.830232,71.30921512670169
527,122.037758,71.33273620101096
528,122.24527,71.33273620101096
529,122.448601,71.30921512670169
530,122.703041,71.60832330928815
531,122.907748,71.60832330928815
532,123.115569,71.60832330928815
533,123.322512,71.60832330928815
534,123.616045,72.21173818728394
535,123.934232,71.90916000908689
536,124.171848,70.11850061912946
537,124.423844,71.60832330928815
538,124.658697,70.98114192966018
539,124.871622,71.60832330928815
540,125.138959,71.33273620101096
541,125.38485,69.77528398336378
542,125.592111,71.90916000908689
543,125.821916,70.68511246238694
544,126.04837,69.48563662231236
545,126.308967,70.68511246238694
546,126.50626,71.33273620101096
547,126.703593,71.27887909457989
548,126.898623,71.90916000908689
549,127.088154,71.03431100812018
550,127.270052,71.60832330928815
551,127.575639,71.90916000908689
552,127.83507,70.68511246238694
553,128.066581,71.90916000908689
554,128.317297,71.90916000908689
555,128.545011,72.21173818728394
556,128.815136,71.60832330928815
557,129.03143,72.51607092241812
558,129.281686,71.63288891260967
559,129.504615,70.68511246238694
560,129.722738,71.63288891260967
561,129.991453,70.98114192966018
562,130.195152,71.63288891260967
563,130.383618,70.98114192966018
564,130.579795,71.90916000908689
565,130.766491,70.98114192966018
566,130.954082,70.11850061912946
567,131.200182,71.03431100812018
568,131.426207,70.11850061912946
569,131.679362,72.21173818728394
570,131.914933,72.21173818728394
571,132.159646,69.77528398336378
572,132.452463,70.707507618152
573,132.680057,72.8221714116344
574,132.899363,71.27887909457989
575,133.165495,70.41215711426945
576,133.37255,69.77528398336378
577,133.752551,71.63288891260967
578,133.95405,72.21173818728394
579,134.154094,70.98114192966018
580,134.358565,71.60832330928815
581,134.566223,71.60832330928815
582,134.812158,72.21173818728394
583,135.016324,70.06659359381166
584,135.209352,72.21173818728394
585,135.428731,70.68511246238694
586,135.689245,71.90916000908689
587,136.000817,70.98114192966018
588,136.253522,71.60832330928815
589,136.503576,71.60832330928815
590,136.71221,72.21173818728394
591,136.931008,71.60832330928815
592,137.249232,71.33273620101096
593,137.466343,70.68511246238694
594,137.683356,71.60832330928815
595,137.906327,71.60832330928815
596,138.108365,71.63288891260967
597,138.342863,72.21173818728394
598,138.538414,70.68511246238694
599,138.73884,71.27887909457989
600,138.928446,69.77528398336378
601,139.118421,71.90916000908689
602,139.416253,71.27887909457989
603,139.654688,69.21596532495936
604,139.885765,71.90916000908689
605,140.124734,71.63288891260967
606,140.368604,71.33273620101096
607,140.656105,71.63288891260967
608,140.88497,71.60832330928815
609,141.166833,72.21173818728394
610,141.369889,71.63288891260967
611,141.596958,72.21173818728394
612,141.878727,71.93478211661755
613,142.141123,71.27887909457989
614,142.337891,72.21173818728394
615,142.537666,72.21173818728394
616,142.73157,71.27887909457989
617,142.981361,71.57833674304317
618,143.183924,70.68511246238694
619,143.370218,72.21173818728394
620,143.591818,70.35957784266628
621,143.83371,71.27887909457989
622,144.20862,71.27887909457989
623,144.438266,71.63288891260967
624,144.692103,70.98114192966018
625,144.923355,70.98114192966018
626,145.173997,72.21173818728394
