,time (s),surface tension (mN/m)
0,0.102042,74.46971765420705
1,0.317027,73.51136699449947
2,0.560359,73.22269031288529
3,0.812939,71.9804995849591
4,1.124001,73.20529049566407
5,1.346714,73.22269031288529
6,1.578349,73.86794462394063
7,1.834748,74.12882282256552
8,2.069308,73.81920671060247
9,2.323911,72.28098861829147
10,2.54747,72.26568851444529
11,2.775031,72.9173381802542
12,2.98466,71.68172574767937
13,3.193926,73.81920671060247
14,3.456114,72.61373501672878
15,3.727774,71.68172574767937
16,3.935071,72.61373501672878
17,4.130175,72.61373501672878
18,4.382442,71.9804995849591
19,4.679532,73.81920671060247
20,4.937511,71.9804995849591
21,5.190269,73.81920671060247
22,5.428446,71.9804995849591
23,5.675873,72.9173381802542
24,5.923321,71.9804995849591
25,6.145487,73.51136699449947
26,6.395082,73.22269031288529
27,6.635501,73.51136699449947
28,6.845744,72.61373501672878
29,7.089757,72.61373501672878
30,7.303182,72.9173381802542
31,7.529036,72.56689634441753
32,7.79017,71.9804995849591
33,7.994758,72.8698333434686
34,8.256638,73.51136699449947
35,8.560906,72.56689634441753
36,8.831996,71.9804995849591
37,9.083358,74.78255074426355
38,9.376901,73.51136699449947
39,9.628615,72.9173381802542
40,9.851998,73.51136699449947
41,10.070951,71.68172574767937
42,10.367664,73.22269031288529
43,10.643981,75.09719532077368
44,10.861315,71.68172574767937
45,11.063649,71.9804995849591
46,11.259251,72.9173381802542
47,11.465732,72.56689634441753
48,11.728768,72.56689634441753
49,11.941192,73.86794462394063
50,12.140549,71.68172574767937
51,12.362358,71.04490001756808
52,12.633419,71.96619708319537
53,12.964339,71.9804995849591
54,13.200544,72.9173381802542
55,13.410473,71.68172574767937
56,13.698794,71.9804995849591
57,13.906563,72.8698333434686
58,14.161805,72.9173381802542
59,14.410569,71.68172574767937
60,14.661018,72.61373501672878
61,14.86323,72.9173381802542
62,15.059223,72.26568851444529
63,15.297278,73.81920671060247
64,15.53964,73.81920671060247
65,15.743962,73.51136699449947
66,15.948969,73.81920671060247
67,16.169882,73.22269031288529
68,16.467468,72.61373501672878
69,16.725678,73.22269031288529
70,16.965453,73.51136699449947
71,17.207896,72.56689634441753
72,17.457571,72.8698333434686
73,17.713876,72.28098861829147
74,17.939209,74.78255074426355
75,18.151073,72.26568851444529
76,18.373742,72.8698333434686
77,18.581719,71.3846544392901
78,18.833645,73.17451239665691
79,19.04643,73.81920671060247
80,19.249996,72.56689634441753
81,19.47996,72.9173381802542
82,19.711685,73.5298044867212
83,19.970555,72.58320562861361
84,20.212812,73.81920671060247
85,20.528852,73.81920671060247
86,20.819709,72.61373501672878
87,21.136665,72.61373501672878
88,21.393074,73.51136699449947
89,21.657139,73.51136699449947
90,21.863023,72.61373501672878
91,22.071291,72.58320562861361
92,22.33978,73.51136699449947
93,22.599379,72.61373501672878
94,22.871906,72.28098861829147
95,23.138302,71.9804995849591
96,23.377153,74.49035178468652
97,23.572794,71.9804995849591
98,23.761084,72.8698333434686
99,23.983694,72.56689634441753
100,24.211551,71.68172574767937
101,24.513522,73.81920671060247
102,24.756418,72.56689634441753
103,24.993627,72.61373501672878
104,25.207775,72.8698333434686
105,25.430768,73.22269031288529
106,25.680326,72.28098861829147
107,25.87794,73.81920671060247
108,26.110949,72.9173381802542
109,26.340963,72.26568851444529
110,26.60481,72.56689634441753
111,26.896666,71.68172574767937
112,27.145278,73.81920671060247
113,27.385914,73.22269031288529
114,27.603153,73.81920671060247
115,27.817745,72.9173381802542
116,28.064194,73.51136699449947
117,28.257239,73.20529049566407
118,28.446063,72.56689634441753
119,28.646867,72.56689634441753
120,28.880513,71.68172574767937
121,29.153508,71.68172574767937
122,29.40307,74.17824978019395
123,29.61576,72.9173381802542
124,29.83836,75.09719532077368
125,30.050039,71.68172574767937
126,30.320073,72.26568851444529
127,30.511744,74.17824978019395
128,30.719539,71.9804995849591
129,30.985609,72.31186786694593
130,31.177917,73.51136699449947
131,31.425545,72.8698333434686
132,31.619966,72.9173381802542
133,31.808312,73.22269031288529
134,32.007224,72.9173381802542
135,32.229311,72.61373501672878
136,32.514174,72.56689634441753
137,32.767767,74.17824978019395
138,33.015044,73.51136699449947
139,33.256508,73.22269031288529
140,33.479376,74.46971765420705
141,33.745194,73.81920671060247
142,33.955777,71.3846544392901
143,34.1734,71.68172574767937
144,34.390306,72.61373501672878
145,34.604034,72.8698333434686
146,34.848477,73.81920671060247
147,35.05739,71.96619708319537
148,35.240978,71.96619708319537
149,35.440528,71.9804995849591
150,35.645787,74.46971765420705
151,35.828364,71.96619708319537
152,36.071003,71.68172574767937
153,36.305192,74.17824978019395
154,36.553898,71.9804995849591
155,36.868201,73.86794462394063
156,37.168987,71.3846544392901
157,37.385101,73.81920671060247
158,37.59707,74.46971765420705
159,37.805952,71.9804995849591
160,38.022899,72.9173381802542
161,38.256729,72.9173381802542
162,38.473939,72.56689634441753
163,38.69581,71.9804995849591
164,38.887278,74.17824978019395
165,39.087611,72.56689634441753
166,39.338004,72.61373501672878
167,39.531809,71.9804995849591
168,39.721443,73.22269031288529
169,39.935073,71.9804995849591
170,40.169668,72.9173381802542
171,40.470117,72.9173381802542
172,40.720353,73.51136699449947
173,40.971308,73.22269031288529
174,41.283091,73.51136699449947
175,41.589394,73.22269031288529
176,41.828373,73.51136699449947
177,42.04051,74.80426412907758
178,42.264821,74.17824978019395
179,42.484776,74.49035178468652
180,42.731903,71.3846544392901
181,42.935937,73.5298044867212
182,43.139063,74.78255074426355
183,43.333875,71.9804995849591
184,43.542077,73.22269031288529
185,43.789988,72.9173381802542
186,44.02935,72.9173381802542
187,44.282417,71.68172574767937
188,44.533327,73.81920671060247
189,44.773879,72.61373501672878
190,45.054765,71.9804995849591
191,45.314844,73.81920671060247
192,45.567752,74.17824978019395
193,45.782463,74.46971765420705
194,45.999034,74.49035178468652
195,46.26107,71.05719619175875
196,46.503033,73.5298044867212
197,46.701773,72.61373501672878
198,46.906655,73.22269031288529
199,47.107071,73.22269031288529
200,47.350356,73.22269031288529
201,47.5474,72.9173381802542
202,47.757143,71.68172574767937
203,47.977076,72.58320562861361
204,48.228995,73.51136699449947
205,48.529986,73.5298044867212
206,48.792461,72.9173381802542
207,49.050638,72.58320562861361
208,49.299316,72.28098861829147
209,49.507676,71.63607116238697
210,49.764248,75.41366498530792
211,49.976176,73.22269031288529
212,50.19809,74.49035178468652
213,50.395055,72.28098861829147
214,50.600505,74.12882282256552
215,50.846273,72.56689634441753
216,51.054499,72.28098861829147
217,51.248998,72.58320562861361
218,51.480457,73.81920671060247
219,51.706628,72.28098861829147
220,52.016961,73.22269031288529
221,52.269108,71.63607116238697
222,52.509658,72.56689634441753
223,52.769417,72.26568851444529
224,53.006397,72.8698333434686
225,53.270063,72.26568851444529
226,53.479398,72.9173381802542
227,53.676429,73.22269031288529
228,53.902549,74.17824978019395
229,54.102377,72.56689634441753
230,54.354551,73.5298044867212
231,54.564403,72.28098861829147
232,54.758297,74.12882282256552
233,54.945417,73.51136699449947
234,55.150878,72.9173381802542
235,55.400479,72.56689634441753
236,55.630971,71.9804995849591
237,55.882635,73.83869389183833
238,56.123514,72.58320562861361
239,56.381219,73.5298044867212
240,56.658586,73.83869389183833
241,56.915509,72.28098861829147
242,57.138663,72.56689634441753
243,57.363467,72.58320562861361
244,57.591926,72.58320562861361
245,57.847355,71.65031889063766
246,58.090624,73.81920671060247
247,58.290866,71.9804995849591
248,58.497274,72.88716351184293
249,58.696752,73.5298044867212
250,58.937458,73.51136699449947
251,59.144778,73.5298044867212
252,59.347907,74.12882282256552
253,59.566336,70.76316430233406
254,59.871601,73.22269031288529
255,60.183652,73.5298044867212
256,60.432523,74.14937183754627
257,60.687491,73.5298044867212
258,60.934557,71.68172574767937
259,61.233204,72.56689634441753
260,61.446673,72.56689634441753
261,61.752609,73.5298044867212
262,61.955252,72.8698333434686
263,62.147486,73.22269031288529
264,62.376411,71.9804995849591
265,62.581405,72.8698333434686
266,62.775117,73.22269031288529
267,62.969487,72.58320562861361
268,63.244387,74.44022862791932
269,63.526636,72.28098861829147
270,63.7955,72.8698333434686
271,64.044826,72.8698333434686
272,64.308828,72.8698333434686
273,64.59701,72.58320562861361
274,64.836613,73.83869389183833
275,65.058114,72.28098861829147
276,65.278897,72.9173381802542
277,65.488614,73.81920671060247
278,65.769682,73.22269031288529
279,65.972765,73.51136699449947
280,66.183093,72.8698333434686
281,66.390945,72.28098861829147
282,66.596157,73.5298044867212
283,66.834492,72.28098861829147
284,67.028274,74.12882282256552
285,67.253192,72.28098861829147
286,67.513526,72.28098861829147
287,67.765134,73.17451239665691
288,68.063181,72.8698333434686
289,68.325545,72.28098861829147
290,68.541911,73.17451239665691
291,68.754955,73.83869389183833
292,68.961264,73.51136699449947
293,69.208052,72.28098861829147
294,69.453241,72.28098861829147
295,69.647758,73.17451239665691
296,69.849971,73.5298044867212
297,70.045695,72.28098861829147
298,70.295837,73.4809465049578
299,70.496858,71.9804995849591
300,70.707522,71.94943480598789
301,70.914053,72.88716351184293
302,71.145524,72.28098861829147
303,71.424356,73.17451239665691
304,71.668336,73.17451239665691
305,72.024653,72.28098861829147
306,72.273614,73.17451239665691
307,72.570887,73.17451239665691
308,72.784234,74.12882282256552
309,73.003227,73.81920671060247
310,73.235916,72.28098861829147
311,73.474767,72.28098861829147
312,73.773557,74.44022862791932
313,73.973831,72.28098861829147
314,74.177494,73.17451239665691
315,74.367935,72.8698333434686
316,74.569125,72.28098861829147
317,74.762523,73.4809465049578
318,75.039665,72.58320562861361
319,75.30229,72.28098861829147
320,75.543461,72.88716351184293
321,75.784621,73.4809465049578
322,76.033554,73.83869389183833
323,76.333607,73.4809465049578
324,76.552653,72.56689634441753
325,76.742902,72.88716351184293
326,76.962404,71.35291022222174
327,77.198363,74.44022862791932
328,77.442803,73.4809465049578
329,77.645871,72.88716351184293
330,77.838517,72.8698333434686
331,78.035655,75.73197346278621
332,78.228602,71.9804995849591
333,78.435591,73.4809465049578
334,78.690494,72.58320562861361
335,78.920144,74.14937183754627
336,79.192711,72.28098861829147
337,79.4382,72.8698333434686
338,79.687382,71.9804995849591
339,79.991252,72.58320562861361
340,80.269782,71.35291022222174
341,80.485068,72.28098861829147
342,80.707002,74.75343754439919
343,80.921721,74.75343754439919
344,81.238606,74.14937183754627
345,81.48314,71.9804995849591
346,81.678184,72.58320562861361
347,81.878193,72.23402579811808
348,82.073702,75.09719532077368
349,82.381121,72.23402579811808
350,82.601697,71.65031889063766
351,82.864073,72.58320562861361
352,83.112882,72.88716351184293
353,83.360697,72.28098861829147
354,83.663032,71.05719619175875
355,83.882769,73.17451239665691
356,84.080173,74.12882282256552
357,84.29893,71.93419425850233
358,84.490125,71.93419425850233
359,84.736981,72.88716351184293
360,84.927706,73.17451239665691
361,85.121823,73.78914878649383
362,85.320972,73.17451239665691
363,85.533224,71.93419425850233
364,85.807312,71.35291022222174
365,86.034482,74.44022862791932
366,86.264903,73.17451239665691
367,86.516796,72.28098861829147
368,86.765375,72.58320562861361
369,87.050806,73.5298044867212
370,87.290374,71.9804995849591
371,87.499381,72.58320562861361
372,87.730947,72.58320562861361
373,87.941938,75.41366498530792
374,88.170108,74.12882282256552
375,88.375857,73.83869389183833
376,88.580288,72.8698333434686
377,88.773927,75.41366498530792
378,88.963173,71.33964391104996
379,89.167159,73.19287528009735
380,89.411837,72.25027069050587
381,89.66852,73.78914878649383
382,89.924511,72.28098861829147
383,90.150633,71.33964391104996
384,90.37015,71.63607116238697
385,90.661634,74.44022862791932
386,90.897497,70.76316430233406
387,91.116392,73.4809465049578
388,91.343022,72.23402579811808
389,91.559063,73.17451239665691
390,91.905148,71.93419425850233
391,92.1597,72.88716351184293
392,92.413975,72.58320562861361
393,92.664036,72.58320562861361
394,92.865773,73.83869389183833
395,93.098328,72.88716351184293
396,93.322886,71.93419425850233
397,93.542273,74.44022862791932
398,93.789333,72.28098861829147
399,94.045174,73.4809465049578
400,94.370414,74.12882282256552
401,94.588673,73.4809465049578
402,94.810012,73.4809465049578
403,95.022135,74.12882282256552
404,95.222366,73.17451239665691
405,95.452942,72.58320562861361
406,95.670872,71.65031889063766
407,95.896246,73.5298044867212
408,96.15391,71.65031889063766
409,96.406634,73.4809465049578
410,96.726557,74.14937183754627
411,96.980637,71.93419425850233
412,97.197063,74.44022862791932
413,97.434816,73.17451239665691
414,97.627844,75.41366498530792
415,97.875355,71.63607116238697
416,98.067873,74.75343754439919
417,98.260799,72.23402579811808
418,98.441741,73.5298044867212
419,98.689538,72.58320562861361
420,98.994838,74.75343754439919
421,99.277554,74.75343754439919
422,99.489198,71.65031889063766
423,99.701632,72.58320562861361
424,99.923813,73.17451239665691
425,100.184586,72.88716351184293
426,100.423421,72.58320562861361
427,100.616036,74.14937183754627
428,100.838464,73.5298044867212
429,101.03495,71.93419425850233
430,101.282449,73.19287528009735
431,101.486683,74.14937183754627
432,101.679024,73.17451239665691
433,101.869537,72.8698333434686
434,102.05016,74.12882282256552
435,102.261864,73.83869389183833
436,102.576477,73.17451239665691
437,102.894248,73.78914878649383
438,103.138425,73.17451239665691
439,103.395655,72.23402579811808
440,103.66091,73.4809465049578
441,103.874847,75.12000042737908
442,104.098936,73.83869389183833
443,104.31151,74.44022862791932
444,104.540981,75.12000042737908
445,104.817639,75.73197346278621
446,105.059368,71.35291022222174
447,105.254252,74.14937183754627
448,105.453257,71.05719619175875
449,105.646407,76.40150046368397
450,105.896372,71.63607116238697
451,106.111866,72.8698333434686
452,106.375735,73.78914878649383
453,106.607992,72.23402579811808
454,106.847568,71.63607116238697
455,107.147514,73.4809465049578
456,107.389244,72.23402579811808
457,107.611371,72.23402579811808
458,107.827572,72.23402579811808
459,108.022898,74.46185175365906
460,108.261182,72.58320562861361
461,108.463975,74.75343754439919
462,108.655869,71.35291022222174
463,108.845432,73.5298044867212
464,109.047762,72.23402579811808
465,109.313276,71.93419425850233
466,109.590188,71.93419425850233
467,109.841587,73.83869389183833
468,110.081839,75.12000042737908
469,110.37187,72.23402579811808
470,110.632677,73.78914878649383
471,110.842313,75.06846311122656
472,111.054305,73.78914878649383
473,111.281558,71.05719619175875
474,111.543108,70.1471998470284
475,111.744714,73.83869389183833
476,111.939033,71.65031889063766
477,112.135648,71.65031889063766
478,112.334814,73.83869389183833
479,112.534452,71.63607116238697
480,112.769427,72.28098861829147
481,112.985914,71.63607116238697
482,113.473794,71.0120576428038
483,113.73901,74.75343754439919
484,114.103896,74.44022862791932
485,114.331819,74.75343754439919
486,114.538362,72.88716351184293
487,114.750365,71.9804995849591
488,114.958716,72.23402579811808
489,115.249571,72.88716351184293
490,115.480664,72.88716351184293
491,115.709193,74.14937183754627
492,115.903267,72.58320562861361
493,116.103659,74.46185175365906
494,116.357718,70.4382251850041
495,116.554315,76.05213460279754
496,116.754417,72.53557849293601
497,116.974624,71.30712939613558
498,117.213712,75.38531899040721
499,117.517052,71.94943480598789
500,117.757652,73.19287528009735
501,117.999669,73.83869389183833
502,118.260002,74.14937183754627
503,118.486703,74.14937183754627
504,118.739796,72.23402579811808
505,118.969559,72.88716351184293
506,119.195688,74.09913247777999
507,119.389525,72.58320562861361
508,119.579288,72.8698333434686
509,119.821167,73.4809465049578
510,120.014883,72.23402579811808
511,120.216551,71.93419425850233
512,120.405821,72.58320562861361
513,120.600661,72.88716351184293
514,120.875102,74.75343754439919
515,121.139514,71.93419425850233
516,121.390085,71.93419425850233
517,121.64247,72.88716351184293
518,121.934021,74.12882282256552
519,122.187224,72.58320562861361
520,122.410541,73.4809465049578
521,122.624334,72.23402579811808
522,122.833064,71.63607116238697
523,123.133104,72.88716351184293
524,123.356741,74.44022862791932
525,123.581168,75.06846311122656
526,123.809853,73.4809465049578
527,124.017736,72.88716351184293
528,124.255243,74.09913247777999
529,124.470282,75.06846311122656
530,124.714032,71.35291022222174
531,124.962617,75.06846311122656
532,125.215307,70.71866143610542
533,125.538879,74.14937183754627
534,125.781364,72.8698333434686
535,125.982414,71.93419425850233
536,126.198565,74.14937183754627
537,126.419851,73.17451239665691
538,126.656228,71.35291022222174
539,126.862447,73.83869389183833
540,127.054031,71.35291022222174
541,127.242465,76.05213460279754
542,127.444156,73.5003540629306
543,127.713325,71.94943480598789
544,127.9714,73.4809465049578
545,128.219348,73.78914878649383
546,128.466978,72.8698333434686
547,128.700039,71.35291022222174
548,128.9923,71.94943480598789
549,129.239767,72.88716351184293
550,129.447946,74.46185175365906
551,129.666109,72.58320562861361
552,129.863829,71.05719619175875
553,130.096165,72.8698333434686
554,130.304436,71.93419425850233
555,130.497451,74.12882282256552
556,130.68777,73.14389876706906
557,130.877289,72.23402579811808
558,131.07872,73.4809465049578
559,131.345645,72.58320562861361
560,131.605347,73.4809465049578
561,131.866558,72.8698333434686
562,132.104437,75.41366498530792
563,132.386984,73.4809465049578
564,132.627167,71.93419425850233
565,132.85605,71.35291022222174
566,133.074888,71.35291022222174
567,133.295875,70.4382251850041
568,133.592564,74.46185175365906
569,133.948266,75.7569999613945
570,134.153637,73.5003540629306
571,134.356283,71.93419425850233
572,134.552059,75.06846311122656
573,134.784318,71.0120576428038
574,135.005667,73.4809465049578
575,135.225736,74.46185175365906
576,135.483616,74.14937183754627
577,135.727372,74.14937183754627
578,136.033597,73.17451239665691
579,136.282358,72.88716351184293
580,136.492456,73.19287528009735
581,136.702597,73.17451239665691
582,136.951247,72.58320562861361
583,137.200472,73.78914878649383
584,137.40303,73.4809465049578
585,137.597409,74.46185175365906
586,137.799803,71.94943480598789
587,137.995073,75.06846311122656
588,138.184427,70.7309125298979
589,138.448914,71.35291022222174
590,138.682414,74.46185175365906
591,138.954172,71.94943480598789
592,139.180978,71.30712939613558
593,139.413667,72.23402579811808
594,139.698824,75.06846311122656
595,139.954563,71.30712939613558
596,140.185293,71.35291022222174
597,140.396932,72.23402579811808
598,140.622026,72.23402579811808
599,140.864958,74.14937183754627
600,141.078015,73.4809465049578
601,141.273861,73.78914878649383
602,141.464716,71.65031889063766
603,141.652055,74.14937183754627
604,141.852007,73.78914878649383
605,142.086573,74.75343754439919
606,142.31363,73.19287528009735
607,142.547481,73.19287528009735
608,142.818624,74.75343754439919
609,143.137067,74.14937183754627
610,143.391376,72.88716351184293
611,143.63014,73.4809465049578
612,143.844024,71.05719619175875
613,144.053736,73.78914878649383
614,144.384798,72.88716351184293
615,144.612674,71.65031889063766
616,144.84136,71.65031889063766
617,145.070899,71.94943480598789
618,145.266247,74.75343754439919
619,145.519913,74.46185175365906
620,145.722536,72.23402579811808
621,145.925453,73.78914878649383
622,146.127684,71.35291022222174
623,146.364025,74.75343754439919
624,146.656669,73.17451239665691
625,146.908936,74.44022862791932
626,147.141394,74.14937183754627
627,147.389033,71.35291022222174
