,time (s),surface tension (mN/m)
0,0.102323,71.5879810878755
1,0.338296,70.37352833945772
2,0.586529,74.04026291798563
3,0.825927,69.47039523907097
4,1.153531,70.37352833945772
5,1.416397,72.52263696530743
6,1.648904,71.88778650941107
7,1.899356,73.72953831220501
8,2.132692,71.88778650941107
9,2.466891,70.71613304777016
10,2.705474,70.71613304777016
11,2.940341,71.5879810878755
12,3.179509,71.88778650941107
13,3.403035,72.52263696530743
14,3.738134,72.18932152329096
15,3.991723,71.5879810878755
16,4.243159,72.18932152329096
17,4.482964,71.5879810878755
18,4.729234,72.18932152329096
19,5.04614,71.01182261625581
20,5.28022,71.5879810878755
21,5.528273,72.21971476377168
22,5.778937,73.133746504637
23,6.012055,71.5879810878755
24,6.319081,72.18932152329096
25,6.564334,74.09213237049596
26,6.805913,71.5879810878755
27,7.031943,70.66687119021394
28,7.263131,71.5879810878755
29,7.565368,73.133746504637
30,7.794881,73.4419602148014
31,8.036993,71.01182261625581
32,8.27135,71.5879810878755
33,8.512861,72.18932152329096
34,8.812776,71.88778650941107
35,9.080721,71.88778650941107
36,9.327293,72.18932152329096
37,9.576627,71.88778650941107
38,9.81107,71.5879810878755
39,10.125162,72.49259907880607
40,10.45772,73.133746504637
41,10.706417,70.66687119021394
42,10.957492,72.18932152329096
43,11.262945,72.52263696530743
44,11.522497,72.17118015384689
45,11.769113,71.25862015254546
46,12.028138,72.18932152329096
47,12.249927,71.5879810878755
48,12.562287,73.133746504637
49,12.827956,70.96189761211322
50,13.067765,73.4419602148014
51,13.344471,72.18932152329096
52,13.686523,71.88778650941107
53,13.923403,71.5879810878755
54,14.174811,71.88778650941107
55,14.416318,72.18932152329096
56,14.677731,72.18932152329096
57,14.997909,73.133746504637
58,15.255896,71.53999622277439
59,15.491312,70.96189761211322
60,15.738006,72.18932152329096
61,15.977013,72.18932152329096
62,16.293496,73.133746504637
63,16.553099,70.96189761211322
64,16.803437,72.49259907880607
65,17.039937,73.4419602148014
66,17.286212,71.53999622277439
67,17.58973,72.49259907880607
68,17.850468,70.96189761211322
69,18.102468,72.49259907880607
70,18.357589,71.88778650941107
71,18.678894,71.88778650941107
72,18.934914,72.18932152329096
73,19.183876,72.18932152329096
74,19.435983,72.18932152329096
75,19.768093,72.18932152329096
76,20.027176,72.18932152329096
77,20.277272,71.30921512670169
78,20.539369,72.18932152329096
79,20.923375,73.4419602148014
80,21.155401,71.88778650941107
81,21.399422,70.96189761211322
82,21.649904,73.4419602148014
83,21.903238,71.88778650941107
84,22.232812,72.18932152329096
85,22.485909,72.18932152329096
86,22.776598,71.25862015254546
87,23.024457,73.4419602148014
88,23.35673,72.49259907880607
89,23.593543,72.18932152329096
90,23.830736,71.88778650941107
91,24.058394,70.96189761211322
92,24.307581,72.18932152329096
93,24.603686,71.25862015254546
94,24.843876,72.49259907880607
95,25.075726,72.49259907880607
96,25.317687,72.18932152329096
97,25.557127,71.88778650941107
98,25.84885,72.49259907880607
99,26.129092,70.66687119021394
100,26.368629,72.49259907880607
101,26.601189,72.18932152329096
102,26.923569,73.133746504637
103,27.183568,71.88778650941107
104,27.432547,72.49259907880607
105,27.674113,70.96189761211322
106,27.912788,73.4419602148014
107,28.235213,70.94683373755662
108,28.482677,73.133746504637
109,28.714506,71.25862015254546
110,28.938325,71.88778650941107
111,29.16864,72.49259907880607
112,29.481149,70.68511246238694
113,29.726475,72.49259907880607
114,29.967255,73.4419602148014
115,30.208733,72.79763224230376
116,30.461454,72.79763224230376
117,30.776557,71.88778650941107
118,31.115002,71.88778650941107
119,31.39124,72.77741947277512
120,31.676224,71.88778650941107
121,32.010694,70.96189761211322
122,32.253637,71.5570514717799
123,32.551281,72.18932152329096
124,32.803575,71.25862015254546
125,33.116676,70.66687119021394
126,33.379355,71.25862015254546
127,33.646897,71.5879810878755
128,33.884655,73.133746504637
129,34.108491,71.25862015254546
130,34.397447,71.5570514717799
131,34.660618,72.49259907880607
132,34.890334,72.79763224230376
133,35.117431,72.79763224230376
134,35.368659,71.25862015254546
135,35.723819,72.49259907880607
136,35.962393,72.18932152329096
137,36.203876,71.30921512670169
138,36.455447,72.18932152329096
139,36.683902,71.88778650941107
140,36.985637,72.18932152329096
141,37.247907,72.18932152329096
142,37.498562,72.18932152329096
143,37.749615,73.133746504637
144,37.978144,72.49259907880607
145,38.295104,73.4419602148014
146,38.532708,72.49259907880607
147,38.770193,70.96189761211322
148,39.008841,70.96189761211322
149,39.253547,73.4419602148014
150,39.572545,70.39077802122489
151,39.831142,72.18932152329096
152,40.094686,72.49259907880607
153,40.341975,70.96189761211322
154,40.651483,71.5570514717799
155,40.908455,71.25862015254546
156,41.144679,71.25862015254546
157,41.392423,71.5570514717799
158,41.853305,70.96189761211322
159,42.09208,71.25862015254546
160,42.324945,71.25862015254546
161,42.550954,72.18932152329096
162,42.790531,70.96189761211322
163,43.100658,72.18932152329096
164,43.350387,72.18932152329096
165,43.574805,70.68511246238694
166,43.82951,72.18932152329096
167,44.079648,71.88778650941107
168,44.383344,71.25862015254546
169,44.693461,71.5570514717799
170,44.933942,72.18932152329096
171,45.16151,72.49259907880607
172,45.467102,70.96189761211322
173,45.726191,72.49259907880607
174,45.97757,71.25862015254546
175,46.226743,72.79763224230376
176,46.45666,72.79763224230376
177,46.793345,72.79763224230376
178,47.029596,72.49259907880607
179,47.262486,71.5570514717799
180,47.503656,72.18932152329096
181,47.741368,72.18932152329096
182,48.056057,72.18932152329096
183,48.302807,72.49259907880607
184,48.526591,72.18932152329096
185,48.75656,73.3906858594539
186,49.051958,72.49259907880607
187,49.368853,71.25862015254546
188,49.634927,72.18932152329096
189,49.864076,72.49259907880607
190,50.105603,72.49259907880607
191,50.363731,72.18932152329096
192,50.693488,72.79763224230376
193,50.925526,73.41301825142456
194,51.158171,75.03734906199597
195,51.409914,70.04941229685289
196,51.658032,73.75196433290171
197,52.052997,72.49259907880607
198,52.304381,70.96189761211322
199,52.536725,71.5570514717799
200,52.769672,71.5570514717799
201,53.016939,71.90916000908689
202,53.31864,73.4419602148014
203,53.562713,73.10443419843635
204,53.79923,74.7204416620473
205,54.036904,70.34140972828278
206,54.293774,73.4419602148014
207,54.59762,71.5570514717799
208,54.856525,71.5570514717799
209,55.105697,72.13999856635962
210,55.352343,72.49259907880607
211,55.593991,71.5570514717799
212,55.906862,71.25862015254546
213,56.166837,73.75196433290171
214,56.396072,74.37739786417313
215,56.628881,73.75196433290171
216,56.855744,72.79763224230376
217,57.184639,73.4419602148014
218,57.445022,71.5570514717799
219,57.698524,72.49259907880607
220,57.945137,70.6350828958644
221,58.272227,71.85720434416302
222,58.518978,72.49259907880607
223,58.783694,71.5879810878755
224,59.035512,72.49259907880607
225,59.266872,72.18932152329096
226,59.580685,70.98114192966018
227,59.816495,71.60832330928815
228,60.082649,73.133746504637
229,60.317011,73.75196433290171
230,60.547042,74.04026291798563
231,60.863878,72.18932152329096
232,61.118434,70.96189761211322
233,61.351941,71.25862015254546
234,61.583477,71.25862015254546
235,61.827641,71.5570514717799
236,62.153032,71.25862015254546
237,62.502499,72.18932152329096
238,62.768111,71.25862015254546
239,63.009146,72.18932152329096
240,63.3571,72.18932152329096
241,63.583788,70.96189761211322
242,63.819226,71.25862015254546
243,64.060539,72.49259907880607
244,64.352758,72.13999856635962
245,64.660062,72.18932152329096
246,64.898334,72.49259907880607
247,65.130308,72.79763224230376
248,65.380736,71.25862015254546
249,65.631724,72.18932152329096
250,65.955395,72.49259907880607
251,66.197359,72.18932152329096
252,66.430071,72.18932152329096
253,66.670728,72.49259907880607
254,66.912105,72.18932152329096
255,67.221229,72.18932152329096
256,67.471707,71.60832330928815
257,67.738076,72.49259907880607
258,67.99095,72.49259907880607
259,68.296678,71.5570514717799
260,68.552467,72.49259907880607
261,68.788214,72.18932152329096
262,69.040363,71.88778650941107
263,69.28723,72.49259907880607
264,69.61095,72.79763224230376
265,69.871808,71.5570514717799
266,70.107899,73.08316771100007
267,70.347426,71.83913604479221
268,70.599081,73.4419602148014
269,70.908435,70.68511246238694
270,71.143703,72.49259907880607
271,71.371336,73.4419602148014
272,71.612695,72.49259907880607
273,71.853654,71.53999622277439
274,72.189405,70.96189761211322
275,72.437586,74.06377234607682
276,72.720385,72.49259907880607
277,73.047619,73.75196433290171
278,73.342785,71.85720434416302
279,73.612899,72.49259907880607
280,73.861554,72.18932152329096
281,74.108017,72.49259907880607
282,74.340917,71.5879810878755
283,74.641174,72.79763224230376
284,74.886975,72.79763224230376
285,75.129201,71.88778650941107
286,75.370371,71.25862015254546
287,75.599939,71.5570514717799
288,75.918737,71.5570514717799
289,76.168841,72.79763224230376
290,76.411355,72.49259907880607
291,76.661689,71.83913604479221
292,76.911306,72.79763224230376
293,77.242036,71.5570514717799
294,77.486755,70.68511246238694
295,77.745997,72.49259907880607
296,78.033853,71.25862015254546
297,78.348554,71.83913604479221
298,78.59295,72.44259666589069
299,78.826598,72.49259907880607
300,79.073505,71.5570514717799
301,79.328004,72.49259907880607
302,79.642389,72.49259907880607
303,79.980239,71.25862015254546
304,80.247896,72.18932152329096
305,80.479466,70.68511246238694
306,80.790433,72.49259907880607
307,81.01976,72.79763224230376
308,81.268866,72.79763224230376
309,81.526386,70.96189761211322
310,81.77725,72.79763224230376
311,82.096897,72.79763224230376
312,82.347106,71.90916000908689
313,82.584765,71.25862015254546
314,82.839806,72.49259907880607
315,83.294319,71.25862015254546
316,83.547296,73.3906858594539
317,83.796083,71.85720434416302
318,84.037369,71.5570514717799
319,84.367033,72.18932152329096
320,84.609835,72.49259907880607
321,84.860292,71.85720434416302
322,85.09746,71.5570514717799
323,85.326546,71.25862015254546
324,85.660516,71.88778650941107
325,85.92421,70.68511246238694
326,86.173247,71.25862015254546
327,86.40627,72.79763224230376
328,86.643955,71.85720434416302
329,86.95647,72.18932152329096
330,87.261962,71.25862015254546
331,87.498603,71.85720434416302
332,87.76575,71.25862015254546
333,88.095901,71.5570514717799
334,88.351662,72.79763224230376
335,88.581571,71.85720434416302
336,88.833183,71.85720434416302
337,89.087075,71.5570514717799
338,89.404533,71.25862015254546
339,89.648484,71.5570514717799
340,89.892815,72.21173818728394
341,90.126373,70.68511246238694
342,90.37399,72.79763224230376
343,90.679646,71.5570514717799
344,90.923415,71.25862015254546
345,91.169358,72.49259907880607
346,91.398529,72.18932152329096
347,91.627257,71.5570514717799
348,91.956524,72.18932152329096
349,92.216687,72.49259907880607
350,92.466423,71.5570514717799
351,92.715917,70.6350828958644
352,92.949187,73.4419602148014
353,93.250761,71.85720434416302
354,93.617664,72.15909165933103
355,93.904734,71.5570514717799
356,94.138465,70.91445346871579
357,94.463056,70.34140972828278
358,94.727143,71.5570514717799
359,94.969633,71.25862015254546
360,95.225152,71.85720434416302
361,95.456657,71.85720434416302
362,95.789177,71.27887909457989
363,96.038182,71.85720434416302
364,96.290533,71.5570514717799
365,96.532737,70.6350828958644
366,96.924374,71.5570514717799
367,97.184058,72.79763224230376
368,97.417455,72.79763224230376
369,97.641795,71.85720434416302
370,97.895688,71.85720434416302
371,98.217145,73.10443419843635
372,98.488761,72.15909165933103
373,98.749683,72.15909165933103
374,99.00183,71.85720434416302
375,99.320977,71.5570514717799
376,99.565376,73.10443419843635
377,99.815728,70.93044428912695
378,100.050705,71.5570514717799
379,100.299108,72.15909165933103
380,100.630662,73.10443419843635
381,100.881693,70.93044428912695
382,101.110469,71.5570514717799
383,101.336849,71.85720434416302
384,101.589197,73.10443419843635
385,101.910096,72.15909165933103
386,102.160182,71.85720434416302
387,102.391381,71.85720434416302
388,102.623464,72.13999856635962
389,102.864844,73.69998721019903
390,103.172415,71.52628227379792
391,103.429375,71.57833674304317
392,103.669597,70.6350828958644
393,103.995739,70.93044428912695
394,104.326862,71.85720434416302
395,104.55733,70.93044428912695
396,104.779635,73.10443419843635
397,105.013365,71.85720434416302
398,105.261954,72.15909165933103
399,105.605922,72.46272642343763
400,105.852293,71.85720434416302
401,106.104858,71.85720434416302
402,106.330536,70.6350828958644
403,106.563916,71.27887909457989
404,106.887521,73.10443419843635
405,107.123519,71.85720434416302
406,107.350932,72.13999856635962
407,107.600452,72.15909165933103
408,107.831594,72.15909165933103
409,108.167548,73.10443419843635
410,108.399639,70.6350828958644
411,108.637957,71.22750650995839
412,108.877338,71.85720434416302
413,109.113768,71.85720434416302
414,109.437493,72.15909165933103
415,109.675174,72.15909165933103
416,109.920536,70.93044428912695
417,110.175536,71.85720434416302
418,110.417212,71.85720434416302
419,110.721962,71.5570514717799
420,110.969209,73.10443419843635
421,111.196601,72.44259666589069
422,111.445211,70.93044428912695
423,111.682061,71.5570514717799
424,111.984246,72.79763224230376
425,112.2577,73.41301825142456
426,112.495147,72.79763224230376
427,112.722506,72.15909165933103
428,112.954935,71.85720434416302
429,113.276858,71.5570514717799
430,113.534279,73.10443419843635
431,113.790768,71.25862015254546
432,114.022576,73.10443419843635
433,114.271122,71.85720434416302
434,114.696002,73.10443419843635
435,114.953642,71.85720434416302
436,115.182312,72.76812176039627
437,115.413724,72.46272642343763
438,115.651104,72.15909165933103
439,115.96575,71.85720434416302
440,116.292367,71.5570514717799
441,116.546094,72.15909165933103
442,116.789017,71.5570514717799
443,117.129684,70.34140972828278
444,117.377121,72.51607092241812
445,117.620019,72.79763224230376
446,117.857716,71.5570514717799
447,118.098714,73.10443419843635
448,118.426825,72.15909165933103
449,118.670978,72.44259666589069
450,118.903497,72.15909165933103
451,119.153706,70.6350828958644
452,119.40166,71.5570514717799
453,119.735416,71.5570514717799
454,119.987999,72.15909165933103
455,120.239962,71.5570514717799
456,120.490237,72.15909165933103
457,120.808009,71.85720434416302
458,121.070717,72.15909165933103
459,121.306004,73.10443419843635
460,121.535429,73.69998721019903
461,121.781833,70.93044428912695
462,122.102634,71.85720434416302
463,122.353214,72.15909165933103
464,122.580945,72.15909165933103
465,122.834044,71.85720434416302
466,123.076433,70.93044428912695
467,123.411586,71.85720434416302
468,123.654307,71.5570514717799
469,123.900701,72.46272642343763
470,124.148875,71.5570514717799
471,124.396495,70.98114192966018
472,124.719273,72.79763224230376
473,125.02995,70.93044428912695
474,125.276428,72.15909165933103
475,125.510439,73.10443419843635
476,125.852981,72.15909165933103
477,126.169074,71.5570514717799
478,126.400318,71.5570514717799
479,126.649998,72.15909165933103
480,126.984411,72.15909165933103
481,127.231739,71.22750650995839
482,127.487915,73.10443419843635
483,127.715493,72.15909165933103
484,127.947594,73.10443419843635
485,128.236447,71.5570514717799
486,128.508162,73.41301825142456
487,128.757555,70.6350828958644
488,129.009188,72.15909165933103
489,129.330669,72.46272642343763
490,129.573044,71.22750650995839
491,129.815017,70.93044428912695
492,130.064973,73.10443419843635
493,130.314003,71.85720434416302
494,130.634995,70.93044428912695
495,130.870392,70.93044428912695
496,131.095119,72.15909165933103
497,131.350673,72.15909165933103
498,131.568574,71.52628227379792
499,131.882417,71.85720434416302
500,132.123716,70.93044428912695
501,132.361403,72.46272642343763
502,132.602773,72.46272642343763
503,132.831629,72.15909165933103
504,133.159861,72.46272642343763
505,133.391029,71.85720434416302
506,133.646153,70.93044428912695
507,133.884354,72.46272642343763
508,134.126192,72.46272642343763
509,134.438838,72.46272642343763
510,134.688698,70.93044428912695
511,134.945531,72.15909165933103
512,135.320776,71.52628227379792
513,135.672178,72.76812176039627
514,135.921671,71.85720434416302
515,136.160318,72.15909165933103
516,136.403067,71.5570514717799
517,136.640041,70.30944516678434
518,136.966981,69.72646340282343
519,137.20267,70.93044428912695
520,137.447057,72.46272642343763
521,137.696751,71.22750650995839
522,137.944331,72.46272642343763
523,138.272439,71.85720434416302
524,138.516667,70.93044428912695
525,138.760147,72.46272642343763
526,139.015343,70.93044428912695
527,139.343764,70.01712032005103
528,139.614817,71.22750650995839
529,139.871681,72.76812176039627
530,140.116393,71.22750650995839
531,140.343454,70.93044428912695
532,140.654642,73.41301825142456
533,140.919094,72.15909165933103
534,141.182561,70.93044428912695
535,141.414171,72.15909165933103
536,141.743525,71.22750650995839
537,141.9974,72.46272642343763
538,142.233293,70.93044428912695
539,142.477121,73.72339782633686
540,142.727501,70.01712032005103
541,143.035569,73.72339782633686
542,143.295701,70.93044428912695
543,143.542729,71.82678441084283
544,143.793391,72.46272642343763
545,144.123107,70.6350828958644
546,144.382716,73.41301825142456
547,144.61809,72.46272642343763
548,144.852707,71.22750650995839
549,145.088906,73.07529091313816
550,145.41287,72.76812176039627
551,145.746625,71.52628227379792
552,146.018326,71.22750650995839
553,146.280129,71.22750650995839
554,146.595,72.15909165933103
555,146.840748,71.22750650995839
556,147.072355,70.30944516678434
557,147.327338,71.52628227379792
558,147.573599,72.46272642343763
559,147.905121,73.72339782633686
560,148.156525,71.22750650995839
561,148.385558,71.22750650995839
562,148.62903,71.52628227379792
563,148.890848,70.93044428912695
564,149.213992,71.22750650995839
565,149.457741,72.15909165933103
566,149.691886,72.46272642343763
567,149.964756,72.46272642343763
568,150.20225,70.01712032005103
569,150.538194,70.93044428912695
570,150.783059,71.85720434416302
571,151.03202,71.82678441084283
572,151.274995,70.93044428912695
573,151.510946,71.52628227379792
574,151.817873,71.22750650995839
575,152.066092,71.52628227379792
576,152.299597,74.03558647038449
577,152.53046,74.03558647038449
578,152.773693,70.01712032005103
579,153.079561,73.07529091313816
580,153.339267,71.22750650995839
581,153.59351,73.07529091313816
582,153.840515,71.52628227379792
583,154.167082,71.82678441084283
584,154.420649,72.76812176039627
585,154.661656,71.85720434416302
586,154.900217,72.76812176039627
587,155.132213,72.76812176039627
588,155.462579,72.15909165933103
589,155.712655,71.22750650995839
590,155.958386,72.15909165933103
591,156.298383,74.03558647038449
592,156.679365,72.46272642343763
593,156.929163,71.22750650995839
594,157.17778,73.07529091313816
595,157.432157,73.38424724488533
596,157.794497,71.22750650995839
597,158.018908,73.07529091313816
598,158.267402,71.22750650995839
599,158.504129,70.30944516678434
600,158.746072,73.72339782633686
601,159.079141,73.07529091313816
602,159.322332,71.82678441084283
603,159.560885,70.89914848811956
604,159.812764,72.15909165933103
605,160.038462,71.82678441084283
606,160.343373,71.82678441084283
607,160.603736,72.46272642343763
608,160.854797,71.82678441084283
609,161.092531,71.52628227379792
610,161.32613,72.76812176039627
611,161.698506,72.46272642343763
612,161.948762,72.46272642343763
613,162.170827,72.46272642343763
614,162.399427,71.52628227379792
615,162.651365,73.07529091313816
616,162.963793,70.30944516678434
617,163.199549,72.76812176039627
618,163.424277,72.76812176039627
619,163.662293,72.76812176039627
620,163.886403,71.52628227379792
621,164.195347,72.46272642343763
622,164.432833,72.46272642343763
623,164.656571,72.12902586727061
624,164.889466,71.52628227379792
625,165.116521,71.52628227379792
