,time (s),surface tension (mN/m)
0,0.009274,73.10314374811485
1,0.307623,73.44719374898112
2,0.562129,74.40281868801209
3,0.81053,74.40281868801209
4,1.119945,67.59446853716912
5,1.409463,70.58359885908341
6,1.683257,73.4183195921579
7,1.964331,69.06935879972718
8,2.305765,68.77799907800355
9,2.617536,72.47835527766296
10,2.918083,72.47835527766296
11,3.205579,73.76384822032962
12,3.513063,68.48832528386627
13,3.772289,67.31110997480738
14,4.060021,68.48832528386627
15,4.321417,68.20032478055347
16,4.640003,74.40281868801209
17,4.893649,72.78982703431743
18,5.124487,71.83029228437401
19,5.360419,66.4348842233166
20,5.594135,75.4022602828867
21,5.873259,77.085400567252
22,6.105301,65.88205835523024
23,6.342093,72.76035472386711
24,6.592815,70.25191375431922
25,6.834926,69.06935879972718
26,7.104243,73.4183195921579
27,7.347144,66.15767897522683
28,7.655008,72.78982703431743
29,7.947986,70.28396432564419
30,8.2761,68.48832528386627
31,8.570308,70.61546396230322
32,8.865762,69.39548375117394
33,9.139952,69.98607572115407
34,9.451091,68.20032478055347
35,9.750647,67.91398504523715
36,10.032643,69.39548375117394
37,10.375088,74.08238503147724
38,10.699082,73.76384822032962
39,10.97476,69.98607572115407
40,11.256106,71.52390676443687
41,11.538697,69.36241720095596
42,11.831215,67.31110997480738
43,12.08835,68.20032478055347
44,12.337926,68.77799907800355
45,12.645412,72.78982703431743
46,12.991122,74.08238503147724
47,13.30215,74.08238503147724
48,13.629951,69.98607572115407
49,13.960969,68.81171904060714
50,14.335759,71.55486996231909
51,14.647511,70.31617603613051
52,14.92,69.39548375117394
53,15.172669,68.48832528386627
54,15.490952,70.61546396230322
55,15.756682,72.1687144351285
56,16.089318,73.76384822032962
57,16.383618,71.83029228437401
58,16.715066,65.88205835523024
59,16.995491,75.07646859036808
60,17.274993,74.08238503147724
61,17.531814,75.07646859036808
62,17.842792,70.61546396230322
63,18.135217,72.1687144351285
64,18.426857,71.55486996231909
65,18.674829,72.1687144351285
66,18.947203,69.68991987878148
67,19.184333,73.44719374898112
68,19.412818,67.31110997480738
69,19.657185,69.06935879972718
70,19.89305,68.77799907800355
71,20.178542,71.52390676443687
72,20.46415,70.61546396230322
73,20.702608,70.61546396230322
74,20.944759,70.91650613840024
75,21.225317,71.21931591477562
76,21.472958,73.76384822032962
77,21.711244,66.74926555351148
78,21.956165,67.31110997480738
79,22.190819,71.52390676443687
80,22.457572,69.68991987878148
81,22.730755,72.78982703431743
82,23.004476,68.20032478055347
83,23.273592,73.13240724541058
84,23.584973,68.48832528386627
85,23.87732,72.1687144351285
86,24.169123,67.91398504523715
87,24.652706,68.48832528386627
88,24.989707,69.39548375117394
89,25.320298,71.86089059236659
90,25.600038,68.20032478055347
91,25.929829,72.1687144351285
92,26.184992,71.21931591477562
93,26.434151,71.21931591477562
94,26.699714,68.77799907800355
95,26.986428,65.60801061079749
96,27.265693,75.07646859036808
97,27.557429,75.37564782020807
98,27.809953,76.4169103431626
99,28.118469,74.72516383055364
100,28.468899,75.07646859036808
101,28.79146,71.21931591477562
102,29.102311,72.1687144351285
103,29.438406,69.39548375117394
104,29.693217,70.61546396230322
105,29.952056,70.91650613840024
106,30.206974,71.86089059236659
107,30.506084,70.61546396230322
108,30.840436,69.39548375117394
109,31.123978,67.91398504523715
110,31.376193,67.02937969052428
111,31.689051,74.40281868801209
112,31.961772,68.20032478055347
113,32.237346,72.44850235104306
114,32.522386,68.16611956970702
115,32.841078,77.085400567252
116,33.140774,77.76197609663866
117,33.384868,78.8147765311594
118,33.649832,66.71368595792697
119,33.929953,76.72508295014438
120,34.158357,64.4896514050114
121,34.408101,64.18523920748278
122,34.662692,66.71368595792697
123,34.910315,68.16611956970702
124,35.192869,66.15767897522683
125,35.444305,67.59446853716912
126,35.705629,69.06935879972718
127,35.955715,71.52390676443687
128,36.233405,70.61546396230322
129,36.475509,69.10275440918348
130,36.719473,69.39548375117394
131,36.952079,69.68991987878148
132,37.202043,67.91398504523715
133,37.497111,69.68991987878148
134,37.764112,72.1687144351285
135,38.024968,73.76384822032962
136,38.277169,74.43067658187476
137,38.623101,73.76384822032962
138,38.941558,68.20032478055347
139,39.238191,69.98607572115407
140,39.54429,67.6292936678154
141,39.899196,69.65718715000352
142,40.220642,78.12678290797825
143,40.544114,72.44850235104306
144,40.888318,63.13274019761713
145,41.274374,62.834391302494666
146,41.569907,66.39915401242114
147,41.911817,83.52914817680993
148,42.970991,61.7704763450802
149,43.582969,64.68338336396705
150,44.121972,62.57618245773587
151,44.414127,63.35520397525724
152,44.729642,78.76999205631273
153,44.992606,75.02259111083208
154,45.261338,67.55979027735931
155,45.530656,78.44676373685712
156,45.864895,65.02745414212806
157,46.14375,68.45443685537876
158,46.422522,74.37514561795537
159,46.715595,69.06935879972718
160,47.033468,65.88205835523024
161,47.310941,73.76384822032962
162,47.601032,71.21931591477562
163,47.836976,69.39548375117394
164,48.167554,72.81947446971746
165,48.444641,68.20032478055347
166,48.739054,70.91650613840024
167,48.96797,74.08238503147724
168,49.273018,72.44850235104306
169,49.532221,72.13848619690593
170,49.776051,69.95368163283163
171,50.02286,68.45443685537876
172,50.297183,74.05430602233525
173,50.564938,71.15716881037407
174,50.80189,78.44676373685712
175,51.067446,67.27612685667616
176,51.403863,77.42266979924867
177,51.662113,77.42266979924867
178,52.007961,71.83029228437401
179,52.245927,75.4022602828867
180,52.522508,71.52390676443687
181,52.801747,71.21931591477562
182,53.075776,70.0186291308684
183,53.344784,70.61546396230322
184,53.657529,69.39548375117394
185,53.946842,70.31617603613051
186,54.228635,74.75261230559994
187,54.536556,67.02937969052428
188,54.861129,73.10314374811485
189,55.159244,75.04943523623572
190,55.440308,65.29866325839949
191,55.709213,79.51115097232807
192,56.242777,82.05290484743635
193,56.522448,63.35520397525724
194,56.987478,64.99045520183508
195,57.511522,82.03453097004758
196,57.825009,63.656009260191304
197,58.152965,81.67056836839303
198,58.523518,66.39915401242114
199,58.86165,66.99409614450883
200,59.171064,66.15767897522683
201,59.440828,80.59195581362913
202,59.7705,73.07405742192867
203,60.02878,74.69790236572618
204,60.282419,77.39850308243652
205,60.746724,82.43664073864711
206,61.085845,78.44676373685712
