,time (s),surface tension (mN/m)
0,0.104095,72.9380177212925
1,0.299322,72.6333752812633
2,0.487567,72.6333752812633
3,0.686655,72.9380177212925
4,0.888552,72.6333752812633
5,1.14093,73.89083428772012
6,1.363595,74.80426412907758
7,1.594634,73.89083428772012
8,1.820271,72.6333752812633
9,2.068065,71.99903733409353
10,2.350283,72.9380177212925
11,2.61197,71.40118202358823
12,2.850217,71.42189306940355
13,3.067478,73.55259863483447
14,3.283413,71.40118202358823
15,3.598859,71.40118202358823
16,3.828493,70.48530961340741
17,4.052538,70.19364416820206
18,4.250665,73.89083428772012
19,4.452199,72.9380177212925
20,4.725685,70.82883016691298
21,4.91582,73.89083428772012
22,5.114888,72.9380177212925
23,5.335872,70.48530961340741
24,5.556613,72.9380177212925
25,5.847513,72.6333752812633
26,6.083594,73.89083428772012
27,6.318634,71.40118202358823
28,6.557603,71.99903733409353
29,6.787721,73.89083428772012
30,7.034938,72.33048070107844
31,7.257168,72.33048070107844
32,7.454414,72.9380177212925
33,7.650018,72.9380177212925
34,7.837759,71.40118202358823
35,8.028397,72.9380177212925
36,8.268549,72.9380177212925
37,8.464162,72.9380177212925
38,8.699218,71.99903733409353
39,8.918236,71.99903733409353
40,9.169123,71.69925264394746
41,9.464589,72.9380177212925
42,9.710892,72.33048070107844
43,9.942043,72.05114616375253
44,10.255573,71.40118202358823
45,10.464135,72.9380177212925
46,10.712846,71.40118202358823
47,10.926601,71.99903733409353
48,11.129909,72.9380177212925
49,11.323651,71.40118202358823
50,11.526966,73.89083428772012
51,11.779018,72.9380177212925
52,11.993176,71.40118202358823
53,12.194767,71.99903733409353
54,12.404347,72.9380177212925
55,12.597346,71.69925264394746
56,12.857978,73.89083428772012
57,13.115526,72.9380177212925
58,13.367674,72.35334659006107
59,13.605062,71.69925264394746
60,13.836198,72.9380177212925
61,14.135494,71.69925264394746
62,14.34669,72.9380177212925
63,14.555378,70.82883016691298
64,14.832152,73.24442110508527
65,15.102433,73.89083428772012
66,15.363283,72.9380177212925
67,15.563793,73.24442110508527
68,15.767432,73.24442110508527
69,15.986082,72.6333752812633
70,16.18333,71.69925264394746
71,16.42013,72.9380177212925
72,16.644972,71.99903733409353
73,16.895069,71.12451145325633
74,17.126603,72.6333752812633
75,17.358407,72.6333752812633
76,17.651996,71.99903733409353
77,17.918647,72.9380177212925
78,18.134218,72.9380177212925
79,18.367727,74.51541535630153
80,18.608899,72.6333752812633
81,18.869276,73.89083428772012
82,19.094069,71.99903733409353
83,19.27957,71.40118202358823
84,19.482133,71.99903733409353
85,19.677442,72.30054888615416
86,19.924252,72.9380177212925
87,20.139017,74.51541535630153
88,20.37074,71.99903733409353
89,20.677331,72.6333752812633
90,20.914707,73.55259863483447
91,21.22064,72.6333752812633
92,21.449256,71.40118202358823
93,21.691315,71.99903733409353
94,21.92868,71.99903733409353
95,22.185141,72.6333752812633
96,22.436166,72.9380177212925
97,22.657722,72.35334659006107
98,22.908063,71.69925264394746
99,23.116838,71.42189306940355
100,23.312173,70.48530961340741
101,23.563472,74.51541535630153
102,23.764656,72.9380177212925
103,23.952021,73.24442110508527
104,24.181724,73.55259863483447
105,24.434486,72.60380020752244
106,24.706991,71.99903733409353
107,24.956813,71.40118202358823
108,25.188568,71.99903733409353
109,25.413948,71.40118202358823
110,25.608136,72.9380177212925
111,25.875252,71.99903733409353
112,26.069199,71.69925264394746
113,26.256854,72.9380177212925
114,26.455727,72.9380177212925
115,26.649995,72.6333752812633
116,26.841953,72.9380177212925
117,27.07717,73.24442110508527
118,27.304129,73.24442110508527
119,27.537382,72.6333752812633
120,27.79495,72.9380177212925
121,28.032025,72.9380177212925
122,28.34124,73.55259863483447
123,28.586747,72.05114616375253
124,28.822344,70.77864366134766
125,29.055755,72.9380177212925
126,29.257061,72.58320562861361
127,29.547783,71.99903733409353
128,29.744009,73.24442110508527
129,29.936086,71.99903733409353
130,30.140685,71.99903733409353
131,30.332102,72.6333752812633
132,30.527848,71.69925264394746
133,30.769525,71.40118202358823
134,30.991307,71.99903733409353
135,31.220588,70.48530961340741
136,31.47123,71.99903733409353
137,31.702208,71.99903733409353
138,31.982447,70.48530961340741
139,32.22513,74.51541535630153
140,32.437139,72.60380020752244
141,32.652127,70.77864366134766
142,32.871912,71.07365870835902
143,33.18783,71.07365870835902
144,33.413207,71.99903733409353
145,33.608746,73.55259863483447
146,33.807064,72.60380020752244
147,33.999014,73.24442110508527
148,34.252131,71.07365870835902
149,34.459418,70.48530961340741
150,34.664312,73.24442110508527
151,34.88398,72.65729384440843
152,35.127712,70.77864366134766
153,35.461074,71.37036726194255
154,35.689143,72.30054888615416
155,35.918895,73.55259863483447
156,36.175868,73.24442110508527
157,36.388029,71.99903733409353
158,36.646929,72.9380177212925
159,36.885593,72.9380177212925
160,37.109997,71.99903733409353
161,37.304431,73.55259863483447
162,37.506353,71.99903733409353
163,37.741011,73.24442110508527
164,37.942323,72.30054888615416
165,38.13634,72.9380177212925
166,38.348807,71.99903733409353
167,38.562532,73.24442110508527
168,38.864298,70.77864366134766
169,39.117881,73.24442110508527
170,39.375775,72.33048070107844
171,39.627044,72.60380020752244
172,39.91012,71.37036726194255
173,40.149982,71.69925264394746
174,40.367482,71.42189306940355
175,40.579745,71.99903733409353
176,40.812462,73.24442110508527
177,41.243287,70.48530961340741
178,41.443776,74.51541535630153
179,41.647261,71.99903733409353
180,41.846712,70.77864366134766
181,42.078854,72.9380177212925
182,42.314082,73.24442110508527
183,42.518508,71.07365870835902
184,42.73874,72.28098861829147
185,42.998186,71.42189306940355
186,43.252135,73.24442110508527
187,43.55116,72.9380177212925
188,43.792978,71.42189306940355
189,44.012381,70.48530961340741
190,44.220448,72.65729384440843
191,44.43063,75.49249323495529
192,44.708677,71.99903733409353
193,44.908768,71.99903733409353
194,45.108125,69.9202993897358
195,45.30286,72.9630010231587
196,45.501302,72.6333752812633
197,45.69077,73.55259863483447
198,45.965528,74.51541535630153
199,46.183951,72.9380177212925
200,46.425603,70.82883016691298
201,46.654896,72.6333752812633
202,46.903545,75.49249323495529
203,47.188063,72.9630010231587
204,47.453465,73.55259863483447
205,47.662823,71.99903733409353
206,47.883961,74.51541535630153
207,48.097892,71.07365870835902
208,48.341956,73.24442110508527
209,48.536997,72.30054888615416
210,48.725617,73.55259863483447
211,48.912602,71.40118202358823
212,49.102406,74.51541535630153
213,49.290579,72.9380177212925
214,49.539878,72.9380177212925
215,49.775377,74.20222018488055
216,50.028444,69.9202993897358
217,50.277574,74.20222018488055
218,50.516726,71.99903733409353
219,50.811948,73.55259863483447
220,51.047455,73.24442110508527
221,51.269894,72.9380177212925
222,51.499642,71.99903733409353
223,51.754079,72.9380177212925
224,52.058656,71.69925264394746
225,52.291313,73.55259863483447
226,52.488945,73.24442110508527
227,52.686945,71.72098770494068
228,52.903638,73.24442110508527
229,53.157395,72.35334659006107
230,53.36116,73.55259863483447
231,53.597043,71.42189306940355
232,53.838096,72.6333752812633
233,54.078806,72.9380177212925
234,54.387772,71.99903733409353
235,54.649948,72.9380177212925
236,54.885937,72.9380177212925
237,55.089698,73.55259863483447
238,55.287438,71.42189306940355
239,55.548635,71.99903733409353
240,55.743548,71.99903733409353
241,55.945503,71.99903733409353
242,56.138847,72.9380177212925
243,56.33011,73.55259863483447
244,56.528571,71.99903733409353
245,56.791255,73.55259863483447
246,56.999151,72.9380177212925
247,57.210578,72.02180816379511
248,57.438197,71.42189306940355
249,57.692827,72.60380020752244
250,57.981011,72.9380177212925
251,58.22318,72.05114616375253
252,58.472523,71.99903733409353
253,58.725117,73.24442110508527
254,58.95259,73.24442110508527
255,59.221679,71.99903733409353
256,59.43576,72.9380177212925
257,59.64825,72.02180816379511
258,59.850222,73.55259863483447
259,60.056961,71.07365870835902
260,60.313838,73.24442110508527
261,60.504833,71.99903733409353
262,60.714736,73.24442110508527
263,60.914486,73.24442110508527
264,61.116819,71.07365870835902
265,61.39827,71.99903733409353
266,61.677802,71.99903733409353
267,61.917728,73.55259863483447
268,62.149008,71.99903733409353
269,62.380877,71.99903733409353
270,62.645237,72.35334659006107
271,62.85921,73.55259863483447
272,63.072713,73.24442110508527
273,63.293807,73.24442110508527
274,63.504148,74.20222018488055
275,63.748229,72.02180816379511
276,63.948544,72.9380177212925
277,64.138097,73.55259863483447
278,64.331724,72.9380177212925
279,64.543105,71.99903733409353
280,64.820308,71.07365870835902
281,65.021593,71.99903733409353
282,65.291608,72.65729384440843
283,65.551712,73.24442110508527
284,65.783721,73.24442110508527
285,66.089855,71.72098770494068
286,66.345607,73.24442110508527
287,66.553594,71.99903733409353
288,66.769736,74.51541535630153
289,66.994403,73.55259863483447
290,67.302337,71.07365870835902
291,67.544969,73.55259863483447
292,67.749865,72.30054888615416
293,67.953697,72.30054888615416
294,68.160671,72.02180816379511
295,68.421329,72.60380020752244
296,68.631961,70.77864366134766
297,68.829378,72.60380020752244
298,69.046153,73.86256363226758
299,69.282991,73.86256363226758
300,69.604719,73.24442110508527
301,69.867012,72.30054888615416
302,70.103746,73.55259863483447
303,70.359016,71.99903733409353
304,70.574366,70.50393227849412
305,70.868423,73.55259863483447
306,71.087114,73.86256363226758
307,71.335178,71.99903733409353
308,71.530885,74.51541535630153
309,71.723559,72.60380020752244
310,72.003185,71.37036726194255
311,72.195919,73.55259863483447
312,72.397504,72.35334659006107
313,72.612081,72.30054888615416
314,72.819622,70.48530961340741
315,73.097267,71.07365870835902
316,73.349509,73.86256363226758
317,73.616125,73.24442110508527
318,73.846094,72.65729384440843
319,74.148336,73.55259863483447
320,74.347774,73.24442110508527
321,74.58196,73.24442110508527
322,74.79294,74.17432953992392
323,75.043023,71.99903733409353
324,75.32709,73.24442110508527
325,75.576804,71.07365870835902
326,75.794397,71.0942850043882
327,75.999366,73.55259863483447
328,76.203034,71.94943480598789
329,76.443587,73.24442110508527
330,76.663396,73.55259863483447
331,76.889488,73.24442110508527
332,77.164084,73.24442110508527
333,77.412258,71.99903733409353
334,77.694233,71.99903733409353
335,77.944203,72.9380177212925
336,78.169559,71.99903733409353
337,78.3529,73.55259863483447
338,78.559618,71.99903733409353
339,78.838193,70.77864366134766
340,79.02812,73.55259863483447
341,79.216635,71.99903733409353
342,79.414449,73.86256363226758
343,79.586476,73.24442110508527
344,79.789491,73.24442110508527
345,80.030123,72.60380020752244
346,80.278058,71.69925264394746
347,80.536616,71.42189306940355
348,80.774819,73.24442110508527
349,81.009946,73.24442110508527
350,81.313613,72.6333752812633
351,81.571499,73.24442110508527
352,81.761094,70.82883016691298
353,81.987295,72.9380177212925
354,82.194516,73.24442110508527
355,82.433658,71.42189306940355
356,82.630939,72.33048070107844
357,82.825394,72.60380020752244
358,83.014393,73.55259863483447
359,83.193159,71.99903733409353
360,83.370903,71.99903733409353
361,83.637345,71.42189306940355
362,83.897155,73.24442110508527
363,84.142309,73.55259863483447
364,84.389853,72.30054888615416
365,84.635532,72.9380177212925
366,84.890918,73.24442110508527
367,85.105388,72.60380020752244
368,85.313297,73.24442110508527
369,85.537489,73.24442110508527
370,85.737985,72.9380177212925
371,86.014747,73.24442110508527
372,86.210028,74.51541535630153
373,86.412169,73.86256363226758
374,86.605084,72.60380020752244
375,86.824646,73.55259863483447
376,87.075838,73.55259863483447
377,87.275502,71.99903733409353
378,87.497885,71.99903733409353
379,87.730452,71.69925264394746
380,87.959728,71.99903733409353
381,88.257975,72.9380177212925
382,88.503068,73.55259863483447
383,88.731668,72.30054888615416
384,88.982167,72.60380020752244
385,89.190582,72.60380020752244
386,89.446606,72.30054888615416
387,89.6605,71.99903733409353
388,89.859972,72.60380020752244
389,90.053347,72.60380020752244
390,90.254177,71.99903733409353
391,90.49545,71.07365870835902
392,90.717358,71.99903733409353
393,90.911642,74.51541535630153
394,91.111607,72.9630010231587
395,91.327349,73.55259863483447
396,91.618066,73.55259863483447
397,91.85374,72.60380020752244
398,92.093707,71.99903733409353
399,92.492868,73.55259863483447
400,92.85792,71.99903733409353
401,93.08048,71.07365870835902
402,93.329748,72.60380020752244
403,93.554891,71.72098770494068
404,93.748641,71.42189306940355
405,94.000032,73.55259863483447
406,94.201582,71.07365870835902
407,94.435008,72.90880432208203
408,94.641904,72.60380020752244
409,94.83566,73.55259863483447
410,95.098389,73.24442110508527
411,95.342906,73.24442110508527
412,95.594566,72.60380020752244
413,95.875675,73.24442110508527
414,96.179677,72.60380020752244
415,96.418689,73.55259863483447
416,96.644738,72.60380020752244
417,96.861589,73.27048134125236
418,97.084357,73.86256363226758
419,97.381355,72.60380020752244
420,97.586385,73.55259863483447
421,97.784743,70.16165196631994
422,97.980571,71.99903733409353
423,98.177384,72.30054888615416
424,98.378308,71.07365870835902
425,98.629065,72.30054888615416
426,98.813541,71.99903733409353
427,99.033839,73.86256363226758
428,99.277365,71.66878194193991
429,99.507027,71.99903733409353
430,99.799562,71.99903733409353
431,100.029491,71.37036726194255
432,100.268021,71.07365870835902
433,100.477669,71.66878194193991
434,100.687788,73.55259863483447
435,100.980077,71.66878194193991
436,101.221908,72.90880432208203
437,101.446208,72.60380020752244
438,101.640937,71.99903733409353
439,101.843005,72.60380020752244
440,102.099569,72.60380020752244
441,102.34687,72.60380020752244
442,102.54081,72.60380020752244
443,102.74172,73.55259863483447
444,102.997671,72.60380020752244
445,103.332878,71.99903733409353
446,103.585469,72.60380020752244
447,103.830287,72.90880432208203
448,104.059604,73.24442110508527
449,104.279889,71.66878194193991
450,104.530897,72.60380020752244
451,104.75107,72.60380020752244
452,104.968832,72.90880432208203
453,105.248008,73.55259863483447
454,105.445084,72.30054888615416
455,105.701124,73.86256363226758
456,105.899999,73.86256363226758
457,106.118542,71.37036726194255
458,106.357306,73.55259863483447
459,106.556005,72.30054888615416
460,106.803885,72.02180816379511
461,107.068954,72.60380020752244
462,107.310571,72.60380020752244
463,107.560442,73.55259863483447
464,107.798905,72.90880432208203
465,108.09898,71.66878194193991
466,108.31744,71.37036726194255
467,108.531106,72.60380020752244
468,108.763358,72.30054888615416
469,109.017907,73.55259863483447
470,109.267742,74.51541535630153
471,109.476706,73.24442110508527
472,109.674891,72.90880432208203
473,109.875129,71.99903733409353
474,110.096035,72.60380020752244
475,110.355235,72.60380020752244
476,110.558884,73.86256363226758
477,110.784899,73.55259863483447
478,111.017782,73.21557437144753
479,111.26655,73.55259863483447
480,111.556129,72.30054888615416
481,111.797823,72.60380020752244
482,112.100047,72.30054888615416
483,112.347652,72.60380020752244
484,112.611409,72.60380020752244
485,112.822357,73.55259863483447
486,113.041702,73.27048134125236
487,113.292535,72.60380020752244
488,113.54013,72.02180816379511
489,113.781524,72.60380020752244
490,113.985962,72.60380020752244
491,114.19173,71.99903733409353
492,114.420585,73.55259863483447
493,114.624909,72.60380020752244
494,114.883622,73.55259863483447
495,115.129754,72.90880432208203
496,115.380768,72.60380020752244
497,115.631052,72.60380020752244
498,115.870033,72.60380020752244
499,116.148117,73.86256363226758
500,116.420362,72.60380020752244
501,116.627933,71.37036726194255
502,116.866825,74.17432953992392
503,117.116882,71.66878194193991
504,117.381226,73.86256363226758
505,117.589153,71.3920126737948
506,117.784023,72.60380020752244
507,118.011413,71.0942850043882
508,118.241485,73.86256363226758
509,118.483959,71.66878194193991
510,118.688857,72.60380020752244
511,118.92962,72.30054888615416
512,119.182403,71.96891548172395
513,119.430124,71.37036726194255
514,119.706223,71.37036726194255
515,119.95136,72.60380020752244
516,120.158492,71.66878194193991
517,120.354148,72.90880432208203
518,120.563614,71.66878194193991
519,120.852158,74.17432953992392
520,121.062572,72.90880432208203
521,121.266846,72.90880432208203
522,121.459503,73.86256363226758
523,121.652964,73.19287528009735
524,121.924001,71.96891548172395
525,122.167519,73.86256363226758
526,122.360341,72.30054888615416
527,122.56753,72.02180816379511
528,122.792106,74.46185175365906
529,123.060407,72.30054888615416
530,123.315015,72.30054888615416
531,123.544947,73.21557437144753
532,123.87921,72.60380020752244
533,124.166765,71.0942850043882
534,124.414206,74.17432953992392
535,124.628589,72.60380020752244
536,124.884863,72.60380020752244
537,125.098857,72.60380020752244
538,125.363491,72.90880432208203
539,125.554576,72.60380020752244
540,125.746734,73.86256363226758
541,125.973107,72.60380020752244
542,126.172181,71.66878194193991
543,126.421794,71.66878194193991
544,126.676379,72.60380020752244
545,126.914079,73.21557437144753
546,127.156976,71.99903733409353
547,127.388224,72.60380020752244
548,127.700248,72.30054888615416
549,127.930795,72.60380020752244
550,128.177892,72.60380020752244
551,128.397481,73.86256363226758
552,128.643995,72.30054888615416
553,128.900938,74.17432953992392
554,129.103927,72.32436736545112
555,129.305822,72.60380020752244
556,129.503775,73.55259863483447
557,129.702636,72.02180816379511
558,129.898888,72.60380020752244
559,130.147506,71.37036726194255
560,130.372808,73.55259863483447
561,130.601586,72.60380020752244
562,130.830337,72.02180816379511
563,131.062248,69.88888815221775
564,131.348456,72.32436736545112
565,131.597907,73.57974813347339
566,131.835659,72.30054888615416
567,132.084918,72.90880432208203
568,132.310297,74.17432953992392
569,132.581731,72.60380020752244
570,132.834907,73.86256363226758
571,133.043467,71.37036726194255
572,133.238637,71.96891548172395
573,133.44419,72.90880432208203
574,133.72219,71.96891548172395
575,133.933739,71.66878194193991
576,134.177976,72.90880432208203
577,134.423505,72.60380020752244
578,134.675213,71.04266176311572
579,134.966123,73.86256363226758
580,135.217748,72.60380020752244
581,135.445145,73.21557437144753
582,135.653731,72.90880432208203
583,135.852894,71.66878194193991
584,136.109836,73.86256363226758
585,136.333726,71.96891548172395
586,136.53802,72.90880432208203
587,136.741774,72.60380020752244
588,136.947699,72.60380020752244
589,137.196147,73.86256363226758
590,137.418572,71.0942850043882
591,137.621755,72.60380020752244
592,137.828301,71.0942850043882
593,138.048442,72.02180816379511
594,138.402993,72.02180816379511
595,138.652654,72.02180816379511
596,138.89347,72.90880432208203
597,139.142768,71.66878194193991
598,139.392816,71.66878194193991
599,139.68868,71.0942850043882
600,139.939308,72.60380020752244
601,140.143553,72.62867834618007
602,140.37967,70.7982624163887
603,140.608083,72.90880432208203
604,140.845788,71.66878194193991
605,141.0478,71.94943480598789
606,141.237472,73.5003540629306
607,141.437594,72.60380020752244
608,141.653851,71.37036726194255
609,141.939761,73.21557437144753
610,142.214223,71.66878194193991
611,142.45306,71.3920126737948
612,142.695925,73.5003540629306
613,142.979992,72.60380020752244
614,143.220486,73.21557437144753
615,143.446349,73.21557437144753
616,143.643196,71.96891548172395
617,143.872525,72.62867834618007
618,144.119157,71.96891548172395
619,144.342262,73.55259863483447
620,144.550617,71.37036726194255
621,144.762475,71.66878194193991
622,144.991748,72.27078072940338
623,145.28318,73.80961310858248
624,145.512192,73.21557437144753
625,145.753381,72.60380020752244
626,145.994758,72.90880432208203
