,time (s),surface tension (mN/m)
0,0.102698,51.75788807294248
1,0.353598,51.99165297274029
2,0.597126,52.92234970470584
3,0.819877,51.75788807294248
4,1.132479,52.92234970470584
5,1.389482,51.03095344995388
6,1.631126,52.734306903597215
7,1.874846,51.99165297274029
8,2.116238,51.52556111360382
9,2.429356,51.75788807294248
10,2.656718,52.17782864885927
11,2.926883,51.99165297274029
12,3.178784,51.99165297274029
13,3.410387,51.75788807294248
14,3.738847,51.99165297274029
15,3.975743,51.943616691489616
16,4.207642,52.17782864885927
17,4.43927,52.840482259822515
18,4.661022,52.17782864885927
19,4.956845,52.17782864885927
20,5.216133,52.734306903597215
21,5.441753,52.17782864885927
22,5.668739,52.41349021349997
23,5.935755,51.52556111360382
24,6.25282,52.49641703197188
25,6.496251,52.17782864885927
26,6.749474,52.49641703197188
27,6.980416,51.99165297274029
28,7.211142,52.17782864885927
29,7.514194,51.75788807294248
30,7.760521,52.92234970470584
31,8.006963,51.67658116710596
32,8.250752,52.17782864885927
33,8.503395,52.17782864885927
34,8.821272,51.943616691489616
35,9.05088,52.17782864885927
36,9.279071,52.41349021349997
37,9.530071,51.44499600035999
38,9.774862,52.17782864885927
39,10.093588,51.75788807294248
40,10.35187,53.16216970936818
41,10.61525,52.92234970470584
42,10.855546,51.44499600035999
43,11.092974,51.75788807294248
44,11.387973,51.52556111360382
45,11.637101,51.75788807294248
46,11.894217,51.943616691489616
47,12.139594,52.41349021349997
48,12.384561,51.75788807294248
49,12.776173,51.44499600035999
50,13.015978,51.52556111360382
51,13.265436,51.44499600035999
52,13.493349,51.294660602890396
53,13.72471,51.943616691489616
54,14.020571,52.17782864885927
55,14.261032,52.49641703197188
56,14.495566,51.03095344995388
57,14.730105,51.52556111360382
58,14.958816,51.710842756317454
59,15.265654,51.294660602890396
60,15.52568,50.8026398477954
61,15.757645,51.943616691489616
62,15.986389,51.943616691489616
63,16.238717,51.52556111360382
64,16.545591,52.17782864885927
65,16.792839,51.943616691489616
66,17.022189,51.75788807294248
67,17.25602,51.52556111360382
68,17.489708,51.75788807294248
69,17.78556,52.17782864885927
70,18.028974,51.75788807294248
71,18.269647,51.75788807294248
72,18.508474,51.943616691489616
73,18.760238,51.44499600035999
74,19.070469,52.36678086342603
75,19.306097,52.17782864885927
76,19.532035,51.75788807294248
77,19.762897,52.17782864885927
78,20.012442,51.44499600035999
79,20.292754,51.943616691489616
80,20.556611,51.44499600035999
81,20.891847,51.03095344995388
82,21.126013,51.75788807294248
83,21.418038,51.52556111360382
84,21.665076,51.75788807294248
85,21.889613,51.21482996277283
86,22.119291,52.44714024099044
87,22.362388,51.21482996277283
88,22.693699,51.294660602890396
89,22.940672,52.17782864885927
90,23.185747,52.68401050603865
91,23.415741,51.52556111360382
92,23.648058,51.52556111360382
93,23.940033,51.44499600035999
94,24.208195,51.294660602890396
95,24.464513,51.294660602890396
96,24.701497,50.986071748936574
97,25.013872,52.132110610750395
98,25.280427,51.943616691489616
99,25.50433,51.21482996277283
100,25.757832,51.52556111360382
101,26.006597,51.75788807294248
102,26.316478,51.52556111360382
103,26.549876,51.943616691489616
104,26.803206,51.943616691489616
105,27.052506,51.03095344995388
106,27.281399,50.57572273886043
107,27.589152,51.710842756317454
108,27.841674,51.21482996277283
109,28.072518,51.943616691489616
110,28.302661,50.8026398477954
111,28.552888,51.710842756317454
112,28.851378,51.943616691489616
113,29.115295,51.03095344995388
114,29.34621,52.17782864885927
115,29.597349,50.986071748936574
116,29.825142,51.943616691489616
117,30.130076,51.21482996277283
118,30.388615,51.63205699647711
119,30.643956,50.8026398477954
120,30.862909,50.986071748936574
121,31.218021,51.943616691489616
122,31.478805,51.52556111360382
123,31.708305,50.986071748936574
124,31.927315,51.943616691489616
125,32.166104,51.21482996277283
126,32.477128,50.541158109312505
127,32.707095,51.294660602890396
128,32.942965,51.44499600035999
129,33.171332,51.943616691489616
130,33.39802,51.44499600035999
131,33.692592,50.986071748936574
132,33.966898,51.03095344995388
133,34.216897,51.943616691489616
134,34.442964,51.44499600035999
135,34.67848,50.95122667729606
136,34.973,51.03095344995388
137,35.22679,51.21482996277283
138,35.463989,51.52556111360382
139,35.721016,51.44499600035999
140,35.945538,50.8026398477954
141,36.24929,50.8026398477954
142,36.491476,51.943616691489616
143,36.729113,50.8026398477954
144,36.973828,50.986071748936574
145,37.206358,51.21482996277283
146,37.539739,51.44499600035999
147,37.761979,51.294660602890396
148,37.992777,51.03095344995388
149,38.226824,51.44499600035999
150,38.453772,51.21482996277283
151,38.76116,50.57572273886043
152,39.040693,50.57572273886043
153,39.336341,50.986071748936574
154,39.558721,50.8026398477954
155,39.85123,50.57572273886043
156,40.170379,51.75788807294248
157,40.421974,51.52556111360382
158,40.670987,51.710842756317454
159,41.02053,50.8026398477954
160,41.257733,50.8026398477954
161,41.543628,51.44499600035999
162,41.79748,51.03095344995388
163,42.105802,51.21482996277283
164,42.382399,51.21482996277283
165,42.609259,51.44499600035999
166,42.860726,50.31540079752954
167,43.09325,50.723637670692135
168,43.396588,51.52556111360382
169,43.630909,51.44499600035999
170,43.865537,50.57572273886043
171,44.101905,50.57572273886043
172,44.340765,51.294660602890396
173,44.654767,50.986071748936574
174,44.905237,51.44499600035999
175,45.137711,51.44499600035999
176,45.37172,52.17782864885927
177,45.612895,51.21482996277283
178,45.915956,51.44499600035999
179,46.21989,51.21482996277283
180,46.46104,51.03095344995388
181,46.700503,51.21482996277283
182,47.029275,51.21482996277283
183,47.288068,51.03095344995388
184,47.519674,51.44499600035999
185,47.757123,50.31540079752954
186,47.992365,51.44499600035999
187,48.301746,51.03095344995388
188,48.598134,50.8026398477954
189,48.850672,52.17782864885927
190,49.100233,50.986071748936574
191,49.424144,51.21482996277283
192,49.671049,50.986071748936574
193,49.922031,50.57572273886043
194,50.146031,50.986071748936574
195,50.374882,50.8026398477954
196,50.692051,50.8026398477954
197,50.920004,50.8026398477954
198,51.148908,51.21482996277283
199,51.398388,51.21482996277283
200,51.630559,50.57572273886043
201,51.986185,50.091021657052615
202,52.274086,51.21482996277283
203,52.523099,50.57572273886043
204,52.759055,50.091021657052615
205,53.078824,50.8026398477954
206,53.331612,50.57572273886043
207,53.592224,51.06517515930056
208,53.842077,51.21482996277283
209,54.077566,50.091021657052615
210,54.394458,50.8026398477954
211,54.660232,50.57572273886043
212,54.885476,51.710842756317454
213,55.135194,51.21482996277283
214,55.365366,50.57572273886043
215,55.705025,51.21482996277283
216,55.930736,51.21482996277283
217,56.15708,50.57572273886043
218,56.392457,50.57572273886043
219,56.622801,50.986071748936574
220,56.933514,50.8026398477954
221,57.17191,51.03095344995388
222,57.413079,51.21482996277283
223,57.645955,51.21482996277283
224,57.899096,51.21482996277283
225,58.194402,50.49743801726571
226,58.457824,50.8026398477954
227,58.707663,50.723637670692135
228,58.948124,50.091021657052615
229,59.268477,50.091021657052615
230,59.521101,50.57572273886043
231,59.776475,50.49743801726571
232,60.022215,50.986071748936574
233,60.252137,50.49743801726571
234,60.558527,50.49743801726571
235,60.805345,50.091021657052615
236,61.05096,50.8026398477954
237,61.284794,50.49743801726571
238,61.530816,50.31540079752954
239,61.855025,50.57572273886043
240,62.092791,50.57572273886043
241,62.407904,51.21482996277283
