,time (s),surface tension (mN/m)
0,0.118566,69.17222045479083
1,0.378117,70.38367163681087
2,0.620914,67.98535945379228
3,0.873452,70.38367163681087
4,1.202091,68.2719457755179
5,1.457928,68.2719457755179
6,1.729158,69.46519325679236
7,1.984102,69.46519325679236
8,2.306813,69.17222045479083
9,2.564415,68.2719457755179
10,2.81491,69.17222045479083
11,3.068126,69.17222045479083
12,3.397541,68.2719457755179
13,3.655805,69.46519325679236
14,3.906349,68.88094408144984
15,4.141538,68.2719457755179
16,4.503353,68.88094408144984
17,4.759071,69.75987531321543
18,5.008745,69.46519325679236
19,5.257225,69.17222045479083
20,5.594146,68.825874100173
21,5.868212,68.5601953573548
22,6.113923,69.46519325679236
23,6.371594,68.2719457755179
24,6.699252,67.98535945379228
25,6.93669,69.17222045479083
26,7.180249,69.46519325679236
27,7.451259,69.46519325679236
28,7.788581,69.46519325679236
29,8.057393,70.02880306292116
30,8.327814,69.46519325679236
31,8.606503,69.46519325679236
32,8.923538,68.88094408144984
33,9.187522,70.68319954098895
34,9.444162,68.88094408144984
35,9.692023,69.75987531321543
36,9.912765,69.17222045479083
37,10.266358,69.46519325679236
38,10.534498,69.17222045479083
39,10.799093,70.38367163681087
40,11.04372,68.5601953573548
41,11.372321,69.46519325679236
42,11.634414,69.17222045479083
43,11.901182,68.825874100173
44,12.148397,70.38367163681087
45,12.475318,69.17222045479083
46,12.74062,68.2719457755179
47,12.987924,69.75987531321543
48,13.243386,69.17222045479083
49,13.594362,69.46519325679236
50,13.8647,69.17222045479083
51,14.133527,68.88094408144984
52,14.386082,69.17222045479083
53,14.699659,69.17222045479083
54,14.989404,70.02880306292116
55,15.257588,69.17222045479083
56,15.510782,68.2719457755179
57,15.901414,69.46519325679236
58,16.171629,68.2719457755179
59,16.427002,67.98535945379228
60,16.677402,70.68319954098895
61,17.012882,70.38367163681087
62,17.267709,68.5601953573548
63,17.533591,68.88094408144984
64,17.802399,68.88094408144984
65,18.142982,68.88094408144984
66,18.438684,68.88094408144984
67,18.696391,68.88094408144984
68,18.940481,69.46519325679236
69,19.263562,70.02880306292116
70,19.521033,68.2719457755179
71,19.769929,70.08588718327918
72,20.046126,70.08588718327918
73,20.38265,70.02880306292116
74,20.82017,68.88094408144984
75,21.130703,68.88094408144984
76,21.38006,67.98535945379228
77,21.707758,68.88094408144984
78,21.96702,70.38367163681087
79,22.197458,69.46519325679236
80,22.450531,68.536962543986
81,22.697586,69.46519325679236
82,23.018308,69.46519325679236
83,23.277725,67.98535945379228
84,23.541865,70.05627956688986
85,23.787812,67.98535945379228
86,24.124551,70.38367163681087
87,24.398247,68.2719457755179
88,24.656251,68.88094408144984
89,24.911188,69.46519325679236
90,25.248092,69.46519325679236
91,25.576102,70.08588718327918
92,25.829416,68.5601953573548
93,26.083432,70.08588718327918
94,26.406406,68.88094408144984
95,26.730241,68.88094408144984
96,26.980809,68.88094408144984
97,27.231474,69.46519325679236
98,27.554911,69.46519325679236
99,27.830771,69.46519325679236
100,28.081506,69.46519325679236
101,28.337003,68.88094408144984
102,28.676115,69.17222045479083
103,28.92052,69.46519325679236
104,29.170036,67.98535945379228
105,29.423214,68.88094408144984
106,29.66973,70.02880306292116
107,30.007457,68.88094408144984
108,30.284045,68.2719457755179
109,30.509641,68.2719457755179
110,30.75908,70.02880306292116
111,31.089007,69.46519325679236
112,31.470188,69.46519325679236
113,31.741865,68.88094408144984
114,31.987684,68.5601953573548
115,32.323914,69.11646241142701
116,32.596307,68.88094408144984
117,32.851561,68.2719457755179
118,33.101701,69.46519325679236
119,33.416044,68.5601953573548
120,33.688338,68.5601953573548
121,33.952729,69.46519325679236
122,34.205445,67.98535945379228
123,34.537112,67.10285196706882
124,34.810049,67.3848341362102
125,35.080457,69.43981354858283
126,35.327349,70.08588718327918
127,35.668681,68.88094408144984
128,35.953997,69.17222045479083
129,36.210473,69.17222045479083
130,36.455989,68.88094408144984
131,36.792255,68.88094408144984
132,37.064602,69.46519325679236
133,37.314064,69.17222045479083
134,37.565733,68.2719457755179
135,37.898961,68.88094408144984
136,38.154025,67.98535945379228
137,38.411789,69.46519325679236
138,38.658048,68.88094408144984
139,39.001991,68.2719457755179
140,39.254879,69.17222045479083
141,39.511475,69.46519325679236
142,39.826014,68.88094408144984
143,40.137795,68.88094408144984
144,40.427515,68.2719457755179
145,40.677265,68.88094408144984
146,40.929657,68.88094408144984
147,41.274166,69.46519325679236
148,41.53857,68.88094408144984
149,41.791343,69.46519325679236
150,42.106728,69.46519325679236
151,42.426257,68.88094408144984
152,42.678771,69.17222045479083
153,42.934106,68.88094408144984
154,43.177555,68.88094408144984
155,43.513821,67.98535945379228
156,43.768372,69.46519325679236
157,44.022753,68.88094408144984
158,44.288971,69.17222045479083
159,44.625166,68.88094408144984
160,44.872585,68.2719457755179
161,45.138222,68.536962543986
162,45.396289,70.08588718327918
163,45.726673,68.88094408144984
164,46.006575,69.17222045479083
165,46.254392,69.17222045479083
166,46.505261,69.17222045479083
167,46.834669,68.2719457755179
168,47.108755,67.98535945379228
169,47.357174,67.70042396841063
170,47.61866,67.98535945379228
171,47.969398,69.17222045479083
172,48.217533,68.2719457755179
173,48.489319,68.5601953573548
174,48.739912,68.2719457755179
175,49.090002,68.2719457755179
176,49.343267,68.59135142683209
177,49.619267,69.17222045479083
178,49.866014,68.88094408144984
179,50.197727,67.98535945379228
180,50.45069,69.17222045479083
181,50.703301,68.2719457755179
182,50.955896,69.46519325679236
183,51.286746,68.59135142683209
184,51.560856,68.2719457755179
185,51.801125,69.17222045479083
186,52.061185,66.82248845841424
187,52.486644,68.2719457755179
188,52.771966,69.17222045479083
189,53.040608,69.7898330581133
190,53.310637,69.17222045479083
191,53.640692,69.17222045479083
192,53.921323,68.2719457755179
193,54.173293,68.2719457755179
194,54.423573,68.88094408144984
195,54.782504,69.17222045479083
196,55.071565,70.08588718327918
197,55.320247,67.70042396841063
198,55.571432,69.17222045479083
199,55.94431,69.17222045479083
200,56.235984,69.17222045479083
201,56.516838,69.17222045479083
202,56.785343,68.88094408144984
203,57.139332,68.2719457755179
204,57.488463,69.43981354858283
205,57.761269,68.2719457755179
206,58.011033,68.88094408144984
207,58.380259,68.88094408144984
208,58.644079,68.5601953573548
209,58.90711,67.98535945379228
210,59.177391,67.98535945379228
211,59.510084,67.98535945379228
212,59.768293,69.17222045479083
213,60.016761,69.46519325679236
214,60.270164,69.17222045479083
215,60.62583,68.88094408144984
216,60.895178,68.88094408144984
217,61.144555,69.17222045479083
218,61.403564,68.2719457755179
219,61.733612,68.88094408144984
220,62.062906,68.88094408144984
221,62.312708,69.46519325679236
222,62.676925,67.98535945379228
223,63.046122,69.46519325679236
224,63.314401,70.38367163681087
225,63.567193,67.70042396841063
226,63.819943,69.46519325679236
227,64.168679,69.46519325679236
228,64.426715,68.2719457755179
229,64.688397,67.98535945379228
230,64.921532,67.10285196706882
231,65.248269,67.3848341362102
232,65.509365,70.38367163681087
233,65.777674,68.2719457755179
234,66.032154,69.46519325679236
235,66.361635,70.08588718327918
236,66.636494,68.2719457755179
237,66.872283,68.88094408144984
238,67.131055,69.46519325679236
239,67.467059,67.98535945379228
240,67.723728,68.88094408144984
241,67.973511,68.2719457755179
242,68.221563,69.46519325679236
243,68.55569,68.5601953573548
244,68.809612,68.5601953573548
245,69.058636,69.46519325679236
246,69.308068,68.2719457755179
247,69.663176,69.46519325679236
248,69.918252,67.98535945379228
249,70.165146,69.46519325679236
250,70.414034,68.2719457755179
251,70.749246,68.2719457755179
252,71.00756,69.17222045479083
253,71.271066,68.88094408144984
254,71.548101,68.2719457755179
255,71.865448,67.98535945379228
256,72.132029,69.17222045479083
257,72.378955,68.2719457755179
258,72.629838,68.2719457755179
259,72.960482,68.88094408144984
260,73.236679,68.2719457755179
261,73.566092,69.17222045479083
262,73.818517,69.17222045479083
263,74.150634,68.88094408144984
264,74.401221,69.17222045479083
265,74.67613,68.85012073592054
266,74.927124,68.88094408144984
267,75.256737,69.17222045479083
268,75.509971,67.98535945379228
269,75.779173,68.2719457755179
270,76.031333,67.98535945379228
271,76.360058,68.88094408144984
272,76.67909,68.2719457755179
273,76.929494,69.17222045479083
274,77.189765,68.2719457755179
275,77.534602,68.2719457755179
276,77.785911,68.2719457755179
277,78.038748,68.2719457755179
278,78.290339,67.98535945379228
279,78.621326,68.2719457755179
280,78.889175,69.17222045479083
281,79.142992,68.2719457755179
282,79.370907,67.98535945379228
283,79.702304,69.17222045479083
284,80.030425,69.75987531321543
285,80.291936,70.38367163681087
286,80.541518,67.10285196706882
287,80.875454,67.70042396841063
288,81.145251,67.98535945379228
289,81.399772,68.2719457755179
290,81.672413,67.70042396841063
291,82.022979,69.17222045479083
292,82.274895,68.5601953573548
293,82.523197,69.17222045479083
294,82.743748,67.10285196706882
295,83.006038,68.88094408144984
296,83.335366,68.88094408144984
297,83.702095,67.98535945379228
298,84.010835,68.5601953573548
299,84.264233,67.66844711052671
300,84.615717,69.17222045479083
301,84.887345,68.5601953573548
302,85.160638,67.10285196706882
303,85.411803,70.08588718327918
304,85.737665,69.46519325679236
305,86.018052,68.85012073592054
306,86.286422,68.825874100173
307,86.535084,68.5601953573548
308,86.867693,68.2719457755179
309,87.141206,67.98535945379228
310,87.394248,69.17222045479083
311,87.645909,68.88094408144984
312,87.969126,68.2719457755179
313,88.243388,68.5601953573548
314,88.499312,68.2719457755179
315,88.75011,69.17222045479083
316,89.083654,68.88094408144984
317,89.333632,68.88094408144984
318,89.608166,68.2719457755179
319,89.886335,69.7898330581133
320,90.251241,69.46519325679236
321,90.507671,68.88094408144984
322,90.754502,67.98535945379228
323,91.004559,68.88094408144984
324,91.332112,68.2719457755179
325,91.612596,69.46519325679236
326,91.860999,68.88094408144984
327,92.111103,69.17222045479083
328,92.450589,67.98535945379228
329,92.708585,68.5601953573548
330,92.966273,68.2719457755179
331,93.227028,69.17222045479083
332,93.632854,68.2719457755179
333,93.906391,68.2719457755179
334,94.206565,68.5601953573548
335,94.499208,69.17222045479083
336,94.814452,69.17222045479083
337,95.1004,69.17222045479083
338,95.350181,68.5601953573548
339,95.637376,68.2719457755179
340,95.968528,68.2719457755179
341,96.234683,68.2719457755179
342,96.52396,68.2719457755179
343,96.770062,68.2719457755179
344,97.104444,67.98535945379228
345,97.419112,68.5601953573548
346,97.665749,68.2719457755179
347,97.918844,69.17222045479083
348,98.250749,69.17222045479083
349,98.516314,69.46519325679236
350,98.788847,69.46519325679236
351,99.042551,67.70042396841063
352,99.364827,67.98535945379228
353,99.631167,69.46519325679236
354,99.90402,68.5601953573548
355,100.174215,67.10285196706882
356,100.501235,67.70042396841063
357,100.759039,70.38367163681087
358,101.026354,68.2719457755179
359,101.322133,70.38367163681087
360,101.653971,70.68319954098895
361,101.92272,67.10285196706882
362,102.203116,67.98535945379228
363,102.468584,67.98535945379228
364,102.822682,68.5601953573548
365,103.075924,69.17222045479083
366,103.343596,69.46519325679236
367,103.576121,69.46519325679236
368,103.910966,68.85012073592054
369,104.160055,68.2719457755179
370,104.413821,69.75987531321543
371,104.661671,68.2719457755179
372,105.031331,68.2719457755179
373,105.287619,68.88094408144984
374,105.558251,68.2719457755179
375,105.834697,68.5601953573548
376,106.169551,68.2719457755179
377,106.483422,68.85012073592054
378,106.734735,68.2719457755179
379,107.006748,68.88094408144984
380,107.37403,69.46519325679236
381,107.631995,68.2719457755179
382,107.904286,67.98535945379228
383,108.174707,68.2719457755179
384,108.505169,69.17222045479083
385,108.754786,69.46519325679236
386,109.002517,68.2719457755179
387,109.256442,68.5601953573548
388,109.608788,70.08588718327918
389,109.885814,68.2719457755179
390,110.131938,68.5601953573548
391,110.388656,67.3848341362102
392,110.730843,69.17222045479083
393,110.988857,67.10285196706882
394,111.255862,67.98535945379228
395,111.528496,69.17222045479083
396,111.86922,69.75987531321543
397,112.138552,69.7334532093864
398,112.470101,67.98535945379228
399,112.724415,68.2719457755179
400,113.050933,68.88094408144984
401,113.315252,68.88094408144984
402,113.587387,68.2719457755179
403,113.851083,68.2719457755179
404,114.17433,68.88094408144984
405,114.439327,67.98535945379228
406,114.706475,68.2719457755179
407,115.145511,67.70042396841063
408,115.560607,68.5601953573548
409,115.815019,68.5601953573548
410,116.0815,70.38367163681087
411,116.374115,69.46519325679236
412,116.69859,69.17222045479083
413,116.961476,68.2719457755179
414,117.210578,69.46519325679236
415,117.466896,68.5601953573548
416,117.799501,67.98535945379228
417,118.05155,69.46519325679236
418,118.31021,67.98535945379228
419,118.594186,68.5601953573548
420,118.953533,68.2719457755179
421,119.218324,69.43981354858283
422,119.487448,68.5601953573548
423,119.746582,68.5601953573548
424,120.067566,68.2719457755179
425,120.343479,69.17222045479083
426,120.593362,68.5601953573548
427,120.842422,68.88094408144984
428,121.166699,67.70042396841063
429,121.453906,68.2719457755179
430,121.703146,67.66844711052671
431,121.955356,69.46519325679236
432,122.272756,68.2719457755179
433,122.55956,69.17222045479083
434,122.809261,68.88094408144984
435,123.062969,68.5601953573548
436,123.391872,68.88094408144984
437,123.660956,68.2719457755179
438,123.918429,68.2719457755179
439,124.16618,67.98535945379228
440,124.51727,68.5601953573548
441,124.790698,69.17222045479083
442,125.062936,69.17222045479083
443,125.325575,67.98535945379228
444,125.724803,68.2719457755179
445,126.025978,68.2719457755179
446,126.297633,69.46519325679236
447,126.570589,68.2719457755179
448,126.916039,68.2719457755179
449,127.177286,69.46519325679236
450,127.423093,68.2719457755179
451,127.673085,69.17222045479083
452,128.006605,68.2719457755179
453,128.279446,68.2719457755179
454,128.553004,68.2719457755179
455,128.804784,68.2719457755179
456,129.124613,69.17222045479083
457,129.389278,68.85012073592054
458,129.638398,68.5601953573548
459,129.889235,69.17222045479083
460,130.225508,69.7334532093864
461,130.513948,69.46519325679236
462,130.774226,68.2719457755179
463,131.036636,68.5601953573548
464,131.378142,67.98535945379228
465,131.646183,69.20068017070695
466,131.90108,68.2719457755179
467,132.145735,68.5601953573548
468,132.484604,69.46519325679236
469,132.813294,69.75987531321543
470,133.062999,67.3848341362102
471,133.309745,69.75987531321543
472,133.636706,67.95370314466676
473,133.904992,69.75987531321543
474,134.156201,67.66844711052671
475,134.407104,69.75987531321543
476,134.742157,67.98535945379228
477,135.008119,69.75987531321543
478,135.27569,68.5601953573548
479,135.543364,67.98535945379228
480,135.892977,67.98535945379228
481,136.219056,67.66844711052671
482,136.487553,69.46519325679236
483,136.755815,69.46519325679236
484,137.09466,70.05627956688986
485,137.435678,69.75987531321543
486,137.696503,69.40874011608217
487,137.969909,67.66844711052671
488,138.299222,68.5601953573548
489,138.57404,68.2719457755179
490,138.82568,68.2719457755179
491,139.075973,68.5601953573548
492,139.406219,68.5601953573548
493,139.687275,69.46519325679236
494,139.935331,67.3848341362102
495,140.187699,68.5601953573548
496,140.532357,68.2719457755179
497,140.790009,69.46519325679236
498,141.040449,68.5601953573548
499,141.288259,67.66844711052671
500,141.62424,68.5601953573548
501,141.869921,68.2719457755179
502,142.123365,68.85012073592054
503,142.372937,68.5601953573548
504,142.712244,67.95370314466676
505,142.975154,67.10285196706882
506,143.255881,67.66844711052671
507,143.526417,68.5601953573548
508,143.866625,67.66844711052671
509,144.154328,68.5601953573548
510,144.405168,68.5601953573548
511,144.66211,69.75987531321543
512,145.008162,68.2719457755179
513,145.28103,68.85012073592054
514,145.533903,68.2174789143542
515,145.807658,67.66844711052671
516,146.150087,67.66844711052671
517,146.560365,67.66844711052671
518,146.818363,68.5601953573548
519,147.078634,68.85012073592054
520,147.400786,68.85012073592054
521,147.659548,68.5601953573548
522,147.910758,68.85012073592054
523,148.183863,67.66844711052671
524,148.506077,67.3848341362102
525,148.78928,68.5601953573548
526,149.041531,70.05627956688986
527,149.292523,68.5601953573548
528,149.64646,68.85012073592054
529,149.917698,68.5601953573548
530,150.165225,68.5601953573548
531,150.438403,68.2719457755179
532,150.771902,68.85012073592054
533,151.129364,68.85012073592054
534,151.421743,67.66844711052671
535,151.687323,68.5601953573548
536,152.022129,68.5601953573548
537,152.274734,68.85012073592054
538,152.531938,67.66844711052671
539,152.793228,67.95370314466676
540,153.116496,68.2719457755179
541,153.385538,67.95370314466676
542,153.639856,68.85012073592054
543,153.888277,68.2719457755179
544,154.223881,68.2406146044132
545,154.571167,67.66844711052671
546,154.824566,68.5601953573548
547,155.073148,67.66844711052671
548,155.395482,67.66844711052671
549,155.666798,69.75987531321543
550,155.907653,67.66844711052671
551,156.166701,69.14173456189212
552,156.491396,69.14173456189212
553,156.765019,68.2406146044132
554,157.14909,67.95370314466676
555,157.452043,69.14173456189212
556,157.772682,68.2406146044132
557,158.058683,68.5601953573548
558,158.305383,68.5601953573548
559,158.558084,68.85012073592054
560,158.911616,68.85012073592054
561,159.170862,68.85012073592054
562,159.418852,68.85012073592054
563,159.670923,68.5601953573548
564,159.989328,68.85012073592054
565,160.272979,68.85012073592054
566,160.523048,67.95370314466676
567,160.791392,67.66844711052671
568,161.12466,67.95370314466676
569,161.379411,69.14173456189212
570,161.630447,68.85012073592054
571,161.903226,70.05627956688986
572,162.247645,67.95370314466676
573,162.509311,69.11646241142701
574,162.776611,67.66844711052671
575,163.034761,69.40874011608217
576,163.354782,68.85012073592054
577,163.636892,68.2406146044132
578,163.937603,68.85012073592054
579,164.312472,67.66844711052671
580,164.664799,68.85012073592054
581,164.934873,67.95370314466676
582,165.180519,68.2406146044132
583,165.433444,68.5601953573548
584,165.756702,67.66844711052671
585,166.057138,67.66844711052671
586,166.346961,67.95370314466676
587,166.601533,68.5601953573548
588,166.924451,69.14173456189212
589,167.19647,67.66844711052671
590,167.672446,68.2406146044132
591,168.095753,68.85012073592054
592,168.352468,68.79428872182514
593,168.621451,67.3848341362102
594,168.896371,68.85012073592054
595,169.233383,67.95370314466676
596,169.506745,68.85012073592054
597,169.758735,68.85012073592054
598,170.007953,68.85012073592054
599,170.353289,67.66844711052671
600,170.623004,68.2406146044132
601,170.865161,67.95370314466676
602,171.132998,67.95370314466676
603,171.46098,69.75987531321543
604,171.720226,68.5601953573548
605,171.968667,68.5601953573548
606,172.215329,69.14173456189212
607,172.568735,67.66844711052671
608,172.824115,67.69359785535443
609,173.076891,69.14173456189212
610,173.331982,68.2406146044132
611,173.656374,67.95370314466676
612,173.909478,69.14173456189212
613,174.15785,67.95370314466676
614,174.412082,68.2406146044132
615,174.745503,68.2406146044132
616,175.019652,68.52919396787233
617,175.27029,68.85012073592054
618,175.518557,67.95370314466676
619,175.836337,69.43504960123018
620,176.099312,68.85012073592054
621,176.347191,68.2406146044132
622,176.587866,68.5601953573548
623,176.909654,68.2406146044132
624,177.1892,67.95370314466676
625,177.441207,67.95370314466676
626,177.694419,68.85012073592054
627,178.02186,69.14173456189212
