,time (s),surface tension (mN/m)
0,0.0,39.83584091847069
1,0.243034,38.59370119350663
2,0.497061,39.40651276771181
3,0.770136,38.894988996172444
4,1.063593,39.916896627381476
5,1.280071,37.98884882252101
6,1.497638,38.59370119350663
7,1.714426,39.209290659984525
8,1.915608,38.59370119350663
9,2.17342,40.23945609707139
10,2.399146,39.209290659984525
11,2.611599,38.59370119350663
12,2.810766,39.209290659984525
13,3.0009,38.476202282747515
14,3.23026,38.98186656456695
15,3.426421,38.59370119350663
16,3.633042,38.17854746045741
17,3.880161,39.60509493457674
18,4.10768,39.40651276771181
19,4.381481,38.98186656456695
20,4.632024,39.40651276771181
21,4.881665,38.59370119350663
22,5.089749,38.98186656456695
23,5.30929,38.59370119350663
24,5.583138,39.40651276771181
25,5.799687,37.98884882252101
26,6.022933,39.40651276771181
27,6.32721,38.59370119350663
28,6.531996,39.17795333162227
29,6.769673,39.805049411273
30,6.968527,37.98884882252101
31,7.154269,38.59370119350663
32,7.344277,37.98884882252101
33,7.515474,38.59370119350663
34,7.743839,38.36954307540323
35,8.015713,38.787119825257356
36,8.265849,37.6843302201631
37,8.515689,39.40651276771181
38,8.771283,37.39451504007158
39,8.998,37.39451504007158
40,9.245491,39.805049411273
41,9.479056,38.98186656456695
42,9.683428,37.767901861035426
43,9.904032,39.17795333162227
44,10.147877,38.252735509082726
45,10.473377,37.39451504007158
46,10.668926,36.81048639156241
47,10.874907,39.916896627381476
48,11.062715,39.48597214546433
49,11.234266,37.767901861035426
50,11.461228,37.767901861035426
51,11.73335,37.39451504007158
52,11.984034,39.60509493457674
53,12.221288,39.88680862814218
54,12.485503,38.56184726682229
55,12.713437,38.444807907493
56,12.957515,39.805049411273
57,13.180552,36.992987392828375
58,13.363786,37.767901861035426
59,13.578579,39.375392175492664
60,13.799915,40.41327121203741
61,14.075821,40.648693201755165
62,14.277275,35.94608213139468
63,14.471139,36.23655434164609
64,14.659921,36.51541354214697
65,14.848537,37.39451504007158
66,15.036598,37.767901861035426
67,15.262774,36.87871685838077
68,15.516067,39.287620503801676
69,15.760876,36.415573790239
70,16.014014,39.57419527577431
71,16.303981,40.41327121203741
72,16.534884,40.23945609707139
73,16.74395,36.415573790239
74,16.950474,40.648693201755165
75,17.192788,39.805049411273
76,17.438394,36.81048639156241
77,17.653161,40.23945609707139
78,17.910327,39.77437494425884
79,18.125275,37.767901861035426
80,18.315727,36.87871685838077
81,18.540827,38.33759541235293
82,18.744598,39.375392175492664
83,18.932124,40.209124963473
84,19.120235,40.209124963473
85,19.354293,40.006388581461394
86,19.646652,39.375392175492664
87,19.898493,37.176725480236506
88,20.138933,36.23655434164609
89,20.395074,36.81048639156241
90,20.716686,39.375392175492664
91,20.926461,38.755471759112794
92,21.158467,37.652247179344016
93,21.365045,39.375392175492664
94,21.592745,40.648693201755165
95,21.855328,39.60509493457674
96,22.08563,40.006388581461394
97,22.280401,40.23945609707139
98,22.471366,40.006388581461394
99,22.660201,40.209124963473
100,22.900058,36.81048639156241
101,23.12457,40.648693201755165
102,23.382495,39.805049411273
103,23.635184,38.146400532307275
104,23.886701,39.375392175492664
105,24.156285,36.51541354214697
106,24.365909,40.006388581461394
107,24.573954,36.87871685838077
108,24.785903,40.648693201755165
109,24.997808,36.87871685838077
110,25.253762,40.23945609707139
111,25.476705,39.60509493457674
112,25.692996,36.992987392828375
113,25.889218,40.648693201755165
114,26.078597,40.648693201755165
115,26.312246,39.805049411273
116,26.512119,36.992987392828375
117,26.702164,37.176725480236506
118,26.877418,38.444807907493
119,27.102226,39.88680862814218
120,27.407333,37.09476061716042
121,27.664959,37.767901861035426
122,27.897289,37.95650652586023
123,28.142449,37.652247179344016
124,28.365995,39.17795333162227
125,28.629203,39.805049411273
126,28.855768,39.805049411273
127,29.049163,40.648693201755165
128,29.270442,39.805049411273
129,29.471664,39.805049411273
130,29.733506,39.60509493457674
131,29.928449,40.006388581461394
132,30.127663,36.12366656013387
133,30.324075,37.39451504007158
134,30.511517,37.767901861035426
135,30.698424,37.840618995484384
136,31.017377,36.3024495845061
137,31.269803,39.45554356496985
138,31.55054,40.006388581461394
139,31.782885,39.60509493457674
140,32.008028,39.375392175492664
141,32.249425,40.648693201755165
142,32.466183,39.805049411273
143,32.686533,36.87871685838077
144,32.884607,39.805049411273
145,33.105677,37.176725480236506
146,33.374792,37.176725480236506
147,33.615867,39.77437494425884
148,33.815222,39.375392175492664
149,34.022406,36.87871685838077
150,34.227814,40.006388581461394
151,34.470472,37.46515436946377
152,34.642162,40.648693201755165
153,34.860907,37.176725480236506
154,35.100624,39.805049411273
155,35.340991,38.06197282801246
156,35.646588,37.246972561919335
157,35.893754,39.805049411273
158,36.110223,36.87871685838077
159,36.318448,40.006388581461394
160,36.563638,36.87871685838077
161,36.812385,39.05975904197515
162,37.03213,37.176725480236506
163,37.240839,40.006388581461394
164,37.475948,37.840618995484384
165,37.672206,37.54795697534406
166,37.910542,38.95042840319532
167,38.111093,39.77437494425884
168,38.311407,38.146400532307275
169,38.502399,37.176725480236506
170,38.724154,40.006388581461394
171,39.073561,37.246972561919335
172,39.321352,39.375392175492664
173,39.568532,36.87871685838077
174,39.797974,37.176725480236506
175,39.996471,36.595801520046855
176,40.263417,38.146400532307275
177,40.532907,39.05975904197515
178,40.74055,37.840618995484384
179,40.967126,37.95650652586023
180,41.32129,37.652247179344016
181,41.519595,36.87871685838077
182,41.715969,40.006388581461394
183,41.911178,39.375392175492664
184,42.099796,39.77437494425884
185,42.28959,39.77437494425884
186,42.511395,39.375392175492664
187,42.747559,38.86390286782627
188,43.002142,36.87871685838077
189,43.246941,39.05975904197515
190,43.505609,37.46515436946377
191,43.814955,39.375392175492664
192,44.037466,39.57419527577431
193,44.245855,36.87871685838077
194,44.497725,39.68569738091645
195,44.704634,36.87871685838077
196,45.001652,39.77437494425884
197,45.196098,39.05975904197515
198,45.399151,37.46515436946377
199,45.599372,39.77437494425884
200,45.79458,39.45554356496985
201,45.984429,39.57419527577431
202,46.224051,37.06222016903203
203,46.416211,37.279329247976065
204,46.653807,36.48244181167241
205,46.922855,37.46515436946377
206,47.201344,38.95042840319532
207,47.491492,36.48244181167241
208,47.759376,38.146400532307275
209,47.963756,39.375392175492664
210,48.174073,37.840618995484384
211,48.403812,37.43298516953106
212,48.653264,38.63820177916686
213,48.887424,37.46515436946377
214,49.100772,38.95042840319532
215,49.342008,37.246972561919335
216,49.534064,37.840618995484384
217,49.759964,36.87871685838077
218,49.964648,37.652247179344016
219,50.151558,39.57419527577431
220,50.324387,38.03028125742093
221,50.542628,38.252735509082726
222,50.831635,37.06222016903203
223,51.08392,39.375392175492664
224,51.349625,38.83292900713434
225,51.671543,37.176725480236506
226,51.919792,39.77437494425884
227,52.141152,37.652247179344016
228,52.35995,37.652247179344016
229,52.557756,39.05975904197515
230,52.774114,37.06222016903203
231,53.036996,38.755471759112794
232,53.262845,39.05975904197515
233,53.456127,38.95042840319532
234,53.647732,38.444807907493
235,53.835674,37.652247179344016
236,54.028391,37.43298516953106
237,54.270539,38.63820177916686
238,54.512462,37.840618995484384
239,54.750373,38.63820177916686
240,54.980763,39.57419527577431
241,55.219896,39.25696853665624
242,55.485154,39.25696853665624
243,55.697552,37.840618995484384
244,55.917711,37.840618995484384
245,56.174387,38.146400532307275
246,56.369324,38.03028125742093
247,56.629025,37.46515436946377
248,56.849001,39.05975904197515
249,57.072356,39.25696853665624
250,57.261458,39.77437494425884
251,57.460835,37.840618995484384
252,57.692582,36.87871685838077
253,57.88509,37.840618995484384
254,58.076761,37.840618995484384
255,58.291811,38.755471759112794
256,58.541655,37.246972561919335
257,58.841627,38.03028125742093
258,59.140707,37.06222016903203
259,59.386326,39.05975904197515
260,59.595162,36.66365396174267
261,59.80722,39.57419527577431
262,60.07677,38.63820177916686
263,60.284676,38.03028125742093
264,60.496895,38.63820177916686
265,60.725468,38.63820177916686
266,60.951543,37.840618995484384
267,61.199656,39.25696853665624
268,61.408168,39.45554356496985
269,61.605395,37.54795697534406
270,61.841744,36.846096869194845
271,62.04298,39.25696853665624
272,62.279536,39.45554356496985
273,62.52062,37.36171163989586
274,62.760946,37.840618995484384
275,63.008131,37.43298516953106
276,63.252131,38.63820177916686
277,63.547733,37.06222016903203
278,63.770146,36.95992470866946
279,63.980852,39.6554964728318
280,64.18495,38.03028125742093
281,64.388956,37.36171163989586
282,64.645815,38.83292900713434
283,64.84595,38.63820177916686
284,65.069614,38.444807907493
285,65.277815,38.63820177916686
286,65.467265,38.63820177916686
287,65.697217,38.22124552790163
288,65.886512,38.03028125742093
289,66.083091,38.03028125742093
290,66.259169,39.02900160315361
291,66.510123,38.63820177916686
292,66.797022,38.63820177916686
293,67.029617,37.246972561919335
294,67.280882,39.25696853665624
295,67.508949,39.77437494425884
296,67.719542,37.43298516953106
297,67.965493,39.14672917812396
298,68.209653,38.22124552790163
299,68.413866,39.14672917812396
300,68.627389,38.03028125742093
301,68.844954,38.03028125742093
302,69.118512,37.246972561919335
303,69.310973,37.95650652586023
304,69.508871,38.63820177916686
305,69.699293,39.25696853665624
306,69.886899,38.83292900713434
307,70.066592,38.413523494452306
308,70.334596,36.66365396174267
309,70.580143,38.63820177916686
310,70.820845,38.63820177916686
311,71.059148,37.43298516953106
312,71.289544,38.03028125742093
313,71.551258,38.63820177916686
314,71.768437,38.530102822181135
315,71.998389,37.7354727090286
316,72.206291,39.02900160315361
317,72.42845,38.33759541235293
318,72.69359,37.7354727090286
319,72.907806,39.45554356496985
320,73.10489,37.43298516953106
321,73.298031,37.14384189624982
322,73.488414,37.36171163989586
323,73.685701,38.63820177916686
324,73.91903,39.6554964728318
325,74.151977,39.6554964728318
326,74.401162,39.6554964728318
327,74.6521,38.33759541235293
328,74.88162,38.03028125742093
329,75.177615,39.6554964728318
330,75.386717,37.14384189624982
331,75.601008,39.25696853665624
332,75.846781,37.7354727090286
333,76.047672,39.6554964728318
334,76.308713,37.840618995484384
335,76.534401,38.03028125742093
336,76.749791,38.83292900713434
337,76.947591,38.33759541235293
338,77.139925,37.43298516953106
339,77.358704,37.43298516953106
340,77.573324,38.72393454376198
341,77.759666,38.95042840319532
342,77.934194,37.36171163989586
343,78.160181,37.43298516953106
344,78.449771,38.63820177916686
345,78.702635,38.11436086448366
346,78.954447,37.246972561919335
347,79.203826,39.02900160315361
348,79.417813,37.43298516953106
349,79.687109,38.413523494452306
350,79.937097,38.03028125742093
351,80.143168,39.02900160315361
352,80.360942,38.33759541235293
353,80.600201,39.02900160315361
354,80.86213,37.43298516953106
355,81.078641,37.54795697534406
356,81.27647,37.43298516953106
357,81.478425,38.63820177916686
358,81.666477,39.02900160315361
359,81.852089,39.02900160315361
360,82.079862,39.45554356496985
361,82.442783,38.530102822181135
362,82.712852,37.7354727090286
363,82.942329,37.43298516953106
364,83.215259,37.62026924380277
365,83.428714,39.34438619272124
366,83.637538,38.22124552790163
367,83.867115,38.22124552790163
368,84.070402,37.43298516953106
369,84.330458,39.02900160315361
370,84.549796,39.6554964728318
371,84.755791,37.43298516953106
372,84.948617,37.43298516953106
373,85.145555,37.43298516953106
374,85.389819,39.14672917812396
375,85.590409,36.846096869194845
376,85.780166,37.43298516953106
377,86.014933,39.02900160315361
378,86.26226,38.95042840319532
379,86.545007,38.60712697096568
380,86.796817,38.83292900713434
381,87.035497,37.14384189624982
382,87.250517,39.34438619272124
383,87.459061,37.924270183809426
384,87.702787,38.60712697096568
385,87.911511,38.22124552790163
386,88.1267,38.413523494452306
387,88.370162,39.02900160315361
388,88.579208,38.530102822181135
389,88.807811,37.7354727090286
390,89.015055,38.63820177916686
391,89.204097,39.02900160315361
392,89.392975,39.02900160315361
393,89.585853,39.02900160315361
394,89.765334,38.83292900713434
395,90.03458,37.32901082545848
396,90.275223,39.34438619272124
397,90.505787,39.02900160315361
398,90.733912,38.95042840319532
399,90.979553,39.34438619272124
400,91.270823,37.32901082545848
401,91.482131,39.02900160315361
402,91.691367,37.43298516953106
403,91.900024,39.2264317093566
404,92.127585,37.7354727090286
405,92.398611,38.530102822181135
406,92.621155,38.413523494452306
407,92.843869,39.02900160315361
408,93.046944,38.11436086448366
409,93.242674,38.11436086448366
410,93.476748,39.02900160315361
411,93.658693,38.11436086448366
412,93.868282,39.02900160315361
413,94.116645,37.14384189624982
414,94.367034,39.02900160315361
415,94.664176,37.80883615762976
416,94.909813,39.42523159991899
417,95.158019,39.02900160315361
418,95.364521,37.51544265328432
419,95.572184,39.45554356496985
420,95.804921,39.42523159991899
421,96.054554,38.22124552790163
422,96.28458,38.60712697096568
423,96.498783,38.11436086448366
424,96.700767,38.413523494452306
425,96.94308,38.802067899313734
426,97.146533,38.33759541235293
427,97.334775,38.11436086448366
428,97.521878,38.11436086448366
429,97.70361,38.413523494452306
430,97.926861,38.60712697096568
431,98.236947,39.34438619272124
432,98.498755,38.60712697096568
433,98.735699,38.72393454376198
434,98.96101,38.305756339332255
435,99.193083,37.43298516953106
436,99.456097,37.924270183809426
437,99.667777,39.42523159991899
438,99.87707,37.62026924380277
439,100.096397,39.02900160315361
440,100.32089,38.72393454376198
441,100.544622,38.802067899313734
442,100.737549,39.11561868862758
443,100.926186,38.72393454376198
444,101.112765,39.2264317093566
445,101.303359,39.2264317093566
446,101.497353,38.60712697096568
447,101.758221,38.72393454376198
448,102.029922,38.91910248645361
449,102.280625,38.60712697096568
450,102.531248,37.924270183809426
451,102.826659,38.11436086448366
452,103.070723,38.11436086448366
453,103.280917,38.72393454376198
454,103.535804,39.02900160315361
455,103.73963,37.7354727090286
456,104.01417,37.80883615762976
457,104.263497,38.91910248645361
458,104.491675,38.11436086448366
459,104.68287,38.60712697096568
460,104.875144,39.11561868862758
461,105.117063,37.80883615762976
462,105.323976,38.498468321689764
463,105.495784,37.80883615762976
464,105.71121,39.2264317093566
465,105.974222,38.802067899313734
466,106.278816,39.02900160315361
467,106.519121,38.60712697096568
468,106.77457,38.60712697096568
469,106.988529,39.11561868862758
470,107.206637,38.413523494452306
471,107.453911,37.924270183809426
472,107.666046,38.91910248645361
473,107.881272,38.11436086448366
474,108.103472,37.80883615762976
475,108.31938,39.02900160315361
476,108.552978,39.02900160315361
477,108.749884,37.80883615762976
478,108.940224,38.11436086448366
479,109.133365,38.11436086448366
480,109.314677,38.11436086448366
481,109.537222,38.60712697096568
482,109.838897,39.02900160315361
483,110.080037,39.11561868862758
484,110.320179,37.80883615762976
485,110.549997,38.91910248645361
486,110.784906,39.02900160315361
487,111.040496,39.42523159991899
488,111.246592,38.99835835098367
489,111.445144,37.400920226526125
490,111.657149,38.802067899313734
491,111.883915,37.80883615762976
492,112.153262,38.802067899313734
493,112.368632,38.18986460955803
494,112.571338,38.60712697096568
495,112.751567,37.703148656426336
496,112.934341,37.62026924380277
497,113.245085,38.18986460955803
498,113.473095,38.60712697096568
499,113.726085,37.703148656426336
500,113.951354,39.42523159991899
501,114.194181,37.51544265328432
502,114.47686,38.72393454376198
503,114.705899,38.60712697096568
504,114.914619,38.38234951217084
505,115.121793,38.18986460955803
506,115.319841,38.91910248645361
507,115.581154,38.11436086448366
508,115.79518,38.802067899313734
509,116.017774,38.802067899313734
510,116.208684,38.18986460955803
511,116.405973,38.802067899313734
512,116.645016,37.703148656426336
513,116.839278,37.8921402328094
514,117.031279,37.8921402328094
515,117.216063,38.60712697096568
516,117.432372,38.18986460955803
517,117.725678,37.400920226526125
518,117.966282,38.802067899313734
519,118.2129,38.18986460955803
520,118.454184,38.18986460955803
521,118.669661,38.60712697096568
522,118.924104,37.51544265328432
523,119.173978,38.802067899313734
524,119.382061,38.11436086448366
525,119.610518,37.51544265328432
526,119.820916,39.42523159991899
527,120.096452,38.498468321689764
528,120.301888,38.18986460955803
529,120.494944,38.18986460955803
530,120.698945,38.498468321689764
531,120.88566,38.91910248645361
532,121.076667,38.91910248645361
533,121.294343,38.91910248645361
534,121.502461,38.91910248645361
535,121.741287,38.18986460955803
536,121.991691,37.703148656426336
537,122.225943,37.8921402328094
538,122.515365,39.11561868862758
539,122.726043,38.18986460955803
540,122.93287,39.11561868862758
541,123.167064,39.11561868862758
542,123.421516,38.57616398654462
543,123.684474,38.99835835098367
544,123.903505,37.58839684648167
545,124.126661,38.305756339332255
546,124.316203,37.58839684648167
547,124.507405,38.305756339332255
548,124.74127,38.498468321689764
549,124.936643,39.743818035031495
550,125.108081,37.51544265328432
551,125.339073,37.703148656426336
552,125.605226,38.498468321689764
553,125.908645,38.498468321689764
554,126.151442,39.313495319318065
555,126.399854,37.58839684648167
556,126.59817,38.305756339332255
557,126.802489,39.743818035031495
558,127.078523,38.498468321689764
559,127.290176,38.18986460955803
560,127.517365,38.60712697096568
561,127.718216,38.498468321689764
562,127.928484,38.802067899313734
563,128.17446,37.400920226526125
564,128.36859,38.498468321689764
565,128.567271,38.802067899313734
566,128.767839,38.99835835098367
567,128.951286,38.99835835098367
568,129.136956,38.802067899313734
569,129.392712,37.8921402328094
570,129.638195,38.99835835098367
571,129.887377,38.692508651536556
572,130.136309,38.305756339332255
573,130.43406,38.802067899313734
574,130.647494,38.11436086448366
575,130.865852,37.703148656426336
576,131.12597,38.498468321689764
577,131.33306,38.38234951217084
578,131.59683,38.99835835098367
579,131.813615,37.703148656426336
580,132.034094,37.8921402328094
581,132.225368,37.8921402328094
582,132.419953,37.8921402328094
583,132.661909,38.802067899313734
584,132.850435,39.42523159991899
585,133.043277,38.99835835098367
586,133.261139,37.703148656426336
587,133.548331,38.692508651536556
588,133.907256,37.8921402328094
589,134.156794,39.313495319318065
590,134.395008,38.18986460955803
591,134.597381,38.18986460955803
592,134.817876,38.18986460955803
593,135.085601,39.19601052873807
594,135.315777,38.802067899313734
595,135.530495,37.703148656426336
596,135.759349,37.99869740640137
597,136.010381,38.692508651536556
598,136.271774,37.8921402328094
599,136.470484,37.8921402328094
600,136.671757,38.57616398654462
601,136.861727,38.802067899313734
602,137.059765,39.313495319318065
603,137.253523,38.498468321689764
604,137.534021,37.8921402328094
605,137.783574,38.802067899313734
606,138.032448,38.18986460955803
607,138.274468,38.57616398654462
608,138.51184,38.38234951217084
609,138.764809,39.51274467989543
610,138.971642,38.498468321689764
611,139.203405,37.703148656426336
612,139.413861,39.19601052873807
613,139.649912,39.51274467989543
614,139.887083,37.77716016286225
615,140.10229,38.692508651536556
616,140.291958,38.88788929711487
617,140.479107,39.51274467989543
618,140.667701,38.802067899313734
619,140.853574,38.99835835098367
620,141.077935,39.51274467989543
621,141.26722,39.313495319318065
