,time (s),surface tension (mN/m)
0,0.102539,47.69794082738292
1,0.347951,47.31559414601957
2,0.594874,47.69794082738292
3,0.829443,47.025261032257355
4,1.12103,47.103796751089284
5,1.369421,47.69794082738292
6,1.594782,47.912764415896966
7,1.827685,47.69794082738292
8,2.051933,47.484431945309026
9,2.353328,47.31559414601957
10,2.600668,47.23636629475919
11,2.826113,47.52869570870352
12,3.075498,47.31559414601957
13,3.306338,47.52869570870352
14,3.630922,47.69794082738292
15,3.876219,47.52869570870352
16,4.112431,47.31559414601957
17,4.350769,46.64830655195813
18,4.580567,46.857719594730234
19,4.877178,46.857719594730234
20,5.121408,46.64830655195813
21,5.35304,47.23636629475919
22,5.581925,46.857719594730234
23,5.815153,46.857719594730234
24,6.143171,47.23636629475919
25,6.401723,46.64830655195813
26,6.631253,47.23636629475919
27,6.880945,46.857719594730234
28,7.107404,46.857719594730234
29,7.419487,47.025261032257355
30,7.652116,46.64830655195813
31,7.883225,47.103796751089284
32,8.153339,47.69794082738292
33,8.386421,47.025261032257355
34,8.700415,47.23636629475919
35,8.945098,47.025261032257355
36,9.195862,46.440170193887205
37,9.425319,47.025261032257355
38,9.658438,47.23636629475919
39,9.947131,46.570570630604514
40,10.262542,47.23636629475919
41,10.491124,47.23636629475919
42,10.724436,46.570570630604514
43,11.019591,46.815442771058805
44,11.286014,47.23636629475919
45,11.513733,47.025261032257355
46,11.770934,47.23636629475919
47,12.014071,46.363110411152576
48,12.317365,47.025261032257355
49,12.556968,46.363110411152576
50,12.789902,46.363110411152576
51,13.024186,47.025261032257355
52,13.250294,47.025261032257355
53,13.562432,47.025261032257355
54,13.830625,45.99146373006128
55,14.061598,46.570570630604514
56,14.288363,47.025261032257355
57,14.52502,47.025261032257355
58,14.830395,46.363110411152576
59,15.084677,46.19726094844763
60,15.315691,46.570570630604514
61,15.553396,47.025261032257355
62,15.795555,46.363110411152576
63,16.129138,47.025261032257355
64,16.358967,46.570570630604514
65,16.586902,47.025261032257355
66,16.821069,46.570570630604514
67,17.048996,47.025261032257355
68,17.36272,47.23636629475919
69,17.601682,47.025261032257355
70,17.827973,47.23636629475919
71,18.053353,46.570570630604514
72,18.333094,46.570570630604514
73,18.621412,46.570570630604514
74,18.868258,46.363110411152576
75,19.115385,46.570570630604514
76,19.357375,46.363110411152576
77,19.595707,46.570570630604514
78,19.885086,46.77930086222723
79,20.129799,46.570570630604514
80,20.370213,46.77930086222723
81,20.676639,46.77930086222723
82,21.034068,46.570570630604514
83,21.28629,46.77930086222723
84,21.519532,46.570570630604514
85,21.755919,46.77930086222723
86,22.00425,46.570570630604514
87,22.300817,46.570570630604514
88,22.558633,46.363110411152576
89,22.789597,46.570570630604514
90,23.021818,46.363110411152576
91,23.246986,46.77930086222723
92,23.550341,46.363110411152576
93,23.799054,46.77930086222723
94,24.039149,46.570570630604514
95,24.264213,46.77930086222723
96,24.491656,46.570570630604514
97,24.772436,46.77930086222723
98,25.034524,45.91518344509163
99,25.327561,46.570570630604514
100,25.57446,46.77930086222723
101,25.861676,46.570570630604514
102,26.157296,46.120313623148306
103,26.385599,46.363110411152576
104,26.625879,45.711296591588976
105,26.947325,46.120313623148306
106,27.181974,46.120313623148306
107,27.407109,46.363110411152576
108,27.63733,46.77930086222723
109,27.870146,46.570570630604514
110,28.161719,46.570570630604514
111,28.407724,46.120313623148306
112,28.639371,46.77930086222723
113,28.865956,46.120313623148306
114,29.087302,46.120313623148306
115,29.408435,46.120313623148306
116,29.664267,46.120313623148306
117,29.897409,46.120313623148306
118,30.133452,46.120313623148306
119,30.382656,46.120313623148306
120,30.699742,46.120313623148306
121,30.961799,45.91518344509163
122,31.268967,46.120313623148306
123,31.515323,46.120313623148306
124,31.827917,46.120313623148306
125,32.063349,46.120313623148306
126,32.288286,45.91518344509163
127,32.524643,46.120313623148306
128,32.765414,46.40431799858752
129,33.098864,45.91518344509163
130,33.340427,46.120313623148306
131,33.591924,46.120313623148306
132,33.823902,46.32669705533147
133,34.074095,46.120313623148306
134,34.385997,46.120313623148306
135,34.634377,45.54712734644469
136,34.87658,46.120313623148306
137,35.116354,46.120313623148306
138,35.363977,46.120313623148306
139,35.689645,46.120313623148306
140,35.944078,45.674443427952326
141,36.172768,45.750613201047
142,36.404958,45.750613201047
143,36.769407,46.120313623148306
144,37.022319,46.120313623148306
145,37.270285,46.120313623148306
146,37.522975,45.750613201047
147,37.767409,46.120313623148306
148,38.060956,45.750613201047
149,38.329335,45.955342263691044
150,38.554988,46.120313623148306
151,38.788565,45.750613201047
152,39.060693,46.120313623148306
153,39.37489,46.120313623148306
154,39.619166,45.51074583190257
155,39.863841,45.30831710122064
156,40.101087,45.1071151807956
157,40.328336,46.120313623148306
158,40.650913,45.47161564003166
159,40.897902,45.674443427952326
160,41.13009,45.1071151807956
161,41.380437,45.750613201047
162,41.754428,45.750613201047
163,42.027398,46.120313623148306
164,42.277027,46.120313623148306
165,42.509591,45.750613201047
166,42.827628,45.54712734644469
167,43.120791,45.674443427952326
168,43.359289,46.120313623148306
169,43.592314,45.750613201047
170,43.908414,45.1071151807956
171,44.159033,45.674443427952326
172,44.389289,46.32669705533147
173,44.635091,45.1071151807956
174,44.870134,46.120313623148306
175,45.198217,45.955342263691044
176,45.438609,45.750613201047
177,45.675855,45.750613201047
178,45.915192,45.750613201047
179,46.139467,45.30831710122064
180,46.440113,45.30831710122064
181,46.677571,45.674443427952326
182,46.90687,45.30831710122064
183,47.198117,45.30831710122064
184,47.432104,45.955342263691044
185,47.737051,45.30831710122064
186,47.995022,45.30831710122064
187,48.246714,45.750613201047
188,48.479783,45.30831710122064
189,48.728143,45.750613201047
190,49.025928,45.30831710122064
191,49.275797,46.120313623148306
192,49.505557,45.30831710122064
193,49.748664,45.30831710122064
194,49.978196,46.120313623148306
195,50.292288,45.30831710122064
196,50.528928,45.1071151807956
197,50.772194,45.30831710122064
198,51.01046,45.30831710122064
199,51.253914,45.1071151807956
200,51.579783,45.47161564003166
201,51.918743,45.51074583190257
202,52.193318,45.674443427952326
203,52.42914,45.674443427952326
204,52.751158,45.23291399161103
205,52.985802,45.30831710122064
206,53.229347,45.87850793970783
207,53.491771,45.674443427952326
208,53.743585,45.30831710122064
209,54.040325,45.674443427952326
210,54.270477,45.51074583190257
211,54.514421,45.674443427952326
212,54.764497,45.674443427952326
213,54.994382,45.674443427952326
214,55.300306,45.30831710122064
215,55.545716,44.8703269647271
216,55.786996,45.674443427952326
217,56.037933,44.8703269647271
218,56.291559,45.23291399161103
219,56.619114,44.8703269647271
220,56.848914,45.674443427952326
221,57.080811,44.8703269647271
222,57.325443,45.23291399161103
223,57.563871,45.03236128695609
224,57.872205,45.674443427952326
225,58.1254,45.23291399161103
226,58.374302,45.30831710122064
227,58.613949,45.51074583190257
228,58.839252,45.51074583190257
229,59.135905,45.30831710122064
230,59.377455,45.51074583190257
231,59.606874,45.23291399161103
232,59.8645,45.674443427952326
233,60.112515,44.8703269647271
234,60.423644,45.47161564003166
235,60.678486,45.47161564003166
236,60.926949,45.674443427952326
237,61.219819,45.23291399161103
238,61.545255,45.30831710122064
239,61.786942,45.674443427952326
240,62.034836,45.87850793970783
241,62.339432,45.23291399161103
