,time (s),surface tension (mN/m)
0,0.11325,63.96079103664127
1,0.382423,62.87732526224856
2,0.609209,63.44808135219733
3,0.839348,63.44808135219733
4,1.144499,63.44808135219733
5,1.374063,64.5096484266167
6,1.582405,64.5096484266167
7,1.798408,63.99253910147635
8,2.026054,64.5096484266167
9,2.31853,63.71951136155134
10,2.52699,63.2107247617622
11,2.750724,64.0558501618028
12,2.986438,63.48027186792326
13,3.216485,63.2107247617622
14,3.523676,63.45137311748355
15,3.769961,64.0558501618028
16,3.972177,63.48027186792326
17,4.164559,63.45137311748355
18,4.364065,63.72151642094849
19,4.624868,63.2107247617622
20,4.82522,63.14946321614655
21,5.025141,64.2988526352414
22,5.229015,63.2107247617622
23,5.429093,64.0558501618028
24,5.704346,64.5734710893915
25,5.934035,63.48027186792326
26,6.16628,63.72151642094849
27,6.397423,63.72151642094849
28,6.628244,63.48027186792326
29,6.936897,64.0558501618028
30,7.189894,63.2107247617622
31,7.423267,62.88216141313611
32,7.653278,64.0558501618028
33,7.881184,64.0558501618028
34,8.189284,63.48027186792326
35,8.441862,63.99324167668944
36,8.669742,63.72151642094849
37,8.899877,64.60549952840715
38,9.122107,63.99324167668944
39,9.372683,63.48027186792326
40,9.579364,63.48027186792326
41,9.79718,63.48027186792326
42,10.024007,63.72151642094849
43,10.45286,63.48027186792326
44,10.671937,63.45137311748355
45,10.883914,63.72151642094849
46,11.089449,64.32986824540485
47,11.309934,62.94274692694812
48,11.611551,64.32986824540485
49,11.835663,63.48027186792326
50,12.070388,64.0558501618028
51,12.273704,63.14946321614655
52,12.469534,62.94274692694812
53,12.712077,63.72151642094849
54,12.915812,63.2107247617622
55,13.114192,63.48027186792326
56,13.349692,62.88216141313611
57,13.577943,63.48027186792326
58,13.891757,64.0558501618028
59,14.119789,64.32986824540485
60,14.350359,63.48027186792326
61,14.582966,63.48027186792326
62,14.831329,63.48027186792326
63,15.120387,63.72151642094849
64,15.354179,63.2107247617622
65,15.585882,62.64325713530232
66,15.815635,63.48027186792326
67,16.054899,63.2107247617622
68,16.341503,63.2107247617622
69,16.563065,63.751400194975595
70,16.762175,62.88216141313611
71,16.977359,63.99324167668944
72,17.196563,63.751400194975595
73,17.48324,63.48027186792326
74,17.751588,63.99324167668944
75,17.98465,62.94274692694812
76,18.210281,63.2107247617622
77,18.433063,63.751400194975595
78,18.734718,63.48027186792326
79,18.962399,63.48027186792326
80,19.191732,62.64325713530232
81,19.423904,63.48027186792326
82,19.651897,62.64325713530232
83,19.917404,63.48027186792326
84,20.131565,62.88216141313611
85,20.350132,63.48027186792326
86,20.61846,63.48027186792326
87,20.909963,63.48027186792326
88,21.19987,64.2665609308123
89,21.429619,63.751400194975595
90,21.659004,63.48027186792326
91,21.893498,63.48027186792326
92,22.140016,62.90996618632747
93,22.44063,63.48027186792326
94,22.703411,63.48027186792326
95,22.94382,62.90996618632747
96,23.185734,62.90996618632747
97,23.414114,63.751400194975595
98,23.707304,62.90996618632747
99,23.926809,62.90996618632747
100,24.144094,62.90996618632747
101,24.355559,62.64325713530232
102,24.574486,63.751400194975595
103,24.865794,63.751400194975595
104,25.103908,63.99324167668944
105,25.335731,62.64325713530232
106,25.561405,63.48027186792326
107,25.791005,64.2665609308123
108,26.101577,64.02412180224734
109,26.336738,64.02412180224734
110,26.588987,62.90996618632747
111,26.795332,63.44808135219733
112,26.996088,62.90996618632747
113,27.246986,62.90996618632747
114,27.454526,62.90996618632747
115,27.648334,64.02412180224734
116,27.84467,63.41832748306594
117,28.04617,64.02412180224734
118,28.324944,62.90996618632747
119,28.548412,62.64325713530232
120,28.7818,63.178236961084394
121,29.013037,62.64325713530232
122,29.244586,63.48027186792326
123,29.535103,63.41832748306594
124,29.794511,63.41832748306594
125,30.041071,64.2665609308123
126,30.275552,62.90996618632747
127,30.518586,63.48027186792326
128,30.831928,62.64325713530232
129,31.140877,64.2665609308123
130,31.405065,64.02412180224734
131,31.622527,62.90996618632747
132,31.827325,64.02412180224734
133,32.105644,63.41832748306594
134,32.327969,62.90996618632747
135,32.559628,62.90996618632747
136,32.787014,63.41832748306594
137,33.019504,62.90996618632747
138,33.3292,64.02412180224734
139,33.56109,64.02412180224734
140,33.814697,62.90996618632747
141,34.019495,63.178236961084394
142,34.212181,62.90996618632747
143,34.472079,62.90996618632747
144,34.676866,64.5414863400939
145,34.873259,63.41832748306594
146,35.072133,63.178236961084394
147,35.272483,62.90996618632747
148,35.531641,62.90996618632747
149,35.761643,63.41832748306594
150,35.990504,62.08097839234508
151,36.21786,63.41832748306594
152,36.444389,63.14946321614655
153,36.740248,62.90996618632747
154,36.967752,62.08097839234508
155,37.208094,62.90996618632747
156,37.450177,62.90996618632747
157,37.698792,63.41832748306594
158,38.006948,63.68876609365556
159,38.252771,63.96079103664127
160,38.488954,63.44808135219733
161,38.720539,63.96079103664127
162,38.931431,63.68876609365556
163,39.186847,62.344880963550324
164,39.41112,63.68876609365556
165,39.637053,63.68876609365556
166,39.866651,62.08097839234508
167,40.10033,63.68876609365556
168,40.407874,63.178236961084394
169,40.601462,64.5414863400939
170,40.808184,63.68876609365556
171,41.036474,63.68876609365556
172,41.257711,62.90996618632747
173,41.69178,64.81803017318148
174,41.896006,63.68876609365556
175,42.102262,62.848675933615425
176,42.308968,63.44808135219733
177,42.506375,63.44808135219733
178,42.778646,64.5414863400939
179,43.022901,63.68876609365556
180,43.251934,63.96079103664127
181,43.484544,63.96079103664127
182,43.711531,63.96079103664127
183,44.003906,63.96079103664127
184,44.257982,63.96079103664127
185,44.508094,62.344880963550324
186,44.737505,63.96079103664127
187,44.975099,63.178236961084394
188,45.267825,63.68876609365556
189,45.506863,63.96079103664127
190,45.737313,63.96079103664127
191,45.966667,63.96079103664127
192,46.196621,63.96079103664127
193,46.488788,63.96079103664127
194,46.705037,63.41832748306594
195,46.9182,62.344880963550324
196,47.145088,63.44808135219733
197,47.362856,63.68876609365556
198,47.647559,63.68876609365556
199,47.87888,64.81803017318148
200,48.099679,62.848675933615425
201,48.31488,63.178236961084394
202,48.544281,63.96079103664127
203,48.842509,63.96079103664127
204,49.066417,63.71951136155134
205,49.28461,62.848675933615425
206,49.496293,63.41832748306594
207,49.695755,63.96079103664127
208,50.015876,62.848675933615425
209,50.249285,62.848675933615425
210,50.496707,63.96079103664127
211,50.728692,63.96079103664127
212,50.957817,63.96079103664127
213,51.258439,62.848675933615425
214,51.521615,63.96079103664127
215,51.797411,63.11626598256623
216,52.153208,63.11626598256623
217,52.463952,63.96079103664127
218,52.711568,63.11626598256623
219,52.963117,63.38542279501613
220,53.193353,63.38542279501613
221,53.421054,63.44808135219733
222,53.695755,63.38542279501613
223,53.908358,63.44808135219733
224,54.118392,63.96079103664127
225,54.339333,63.11626598256623
226,54.567096,63.96079103664127
227,54.869726,63.38542279501613
228,55.104408,64.23441441089267
229,55.323835,63.11626598256623
230,55.549373,63.96079103664127
231,55.779267,63.38542279501613
232,56.075435,64.23441441089267
233,56.328531,63.68876609365556
234,56.533396,63.38542279501613
235,56.721379,63.68876609365556
236,56.919009,63.11626598256623
237,57.177081,64.23441441089267
238,57.38754,63.38542279501613
239,57.608918,63.68876609365556
240,57.848031,63.11626598256623
241,58.080099,63.38542279501613
242,58.374034,63.11626598256623
243,58.683255,63.96079103664127
244,58.917153,63.44808135219733
245,59.145151,63.38542279501613
246,59.443099,64.23441441089267
247,59.688604,62.87732526224856
248,59.917452,63.96079103664127
249,60.169166,63.11626598256623
250,60.421455,62.87732526224856
251,60.702853,64.23441441089267
252,60.940025,63.11626598256623
253,61.160407,63.96079103664127
254,61.377504,63.96079103664127
255,61.589874,62.848675933615425
256,61.893699,62.87732526224856
257,62.129178,64.23441441089267
258,62.40291,63.38542279501613
259,62.699628,63.11626598256623
260,62.973942,63.38542279501613
261,63.205762,63.38542279501613
262,63.416015,62.61032601073779
263,63.632599,63.68876609365556
264,63.855098,63.38542279501613
265,64.155889,63.38542279501613
266,64.381466,63.38542279501613
267,64.57803,63.38542279501613
268,64.778082,63.11626598256623
269,65.009833,62.87732526224856
270,65.257063,62.344880963550324
271,65.483122,63.38542279501613
272,65.723237,62.61032601073779
273,65.949616,63.11626598256623
274,66.182657,63.11626598256623
275,66.495229,62.848675933615425
276,66.737009,63.11626598256623
277,66.996701,62.61032601073779
278,67.229395,62.61032601073779
279,67.479144,63.65615830252531
280,67.776712,63.96079103664127
281,68.061177,63.71951136155134
282,68.281506,63.11626598256623
283,68.490947,63.71951136155134
284,68.70749,63.71951136155134
285,68.999188,64.5096484266167
286,69.20542,63.11626598256623
287,69.437687,63.11626598256623
288,69.665636,62.02099761222531
289,69.895795,63.44808135219733
290,70.219726,63.44808135219733
291,70.423724,62.87732526224856
292,70.647151,62.8153288466381
293,70.870101,62.61032601073779
294,71.112383,63.96079103664127
295,71.364477,62.61032601073779
296,71.609498,62.87732526224856
297,71.802884,63.11626598256623
298,71.996087,64.23441441089267
299,72.194645,63.11626598256623
300,72.452469,63.38542279501613
301,72.854299,63.38542279501613
302,73.114147,64.23441441089267
303,73.357189,63.44808135219733
304,73.709987,62.61032601073779
305,73.951512,63.71951136155134
306,74.182914,63.44808135219733
307,74.414891,63.38542279501613
308,74.66447,62.61032601073779
309,74.969219,63.11626598256623
310,75.228803,62.848675933615425
311,75.478728,63.38542279501613
312,75.703578,63.38542279501613
313,75.932858,64.23441441089267
314,76.199675,62.87732526224856
315,76.414185,63.38542279501613
316,76.631133,63.71951136155134
317,76.849514,63.71951136155134
318,77.078876,62.87732526224856
319,77.389479,62.87732526224856
320,77.623947,62.61032601073779
321,77.882629,63.11626598256623
322,78.080049,62.87732526224856
323,78.293251,63.71951136155134
324,78.59555,63.99253910147635
325,78.797272,63.38542279501613
326,79.001781,64.5096484266167
327,79.209917,63.11626598256623
328,79.405372,63.11626598256623
329,79.669045,62.87732526224856
330,79.870419,62.61032601073779
331,80.090516,63.65615830252531
332,80.320348,62.61032601073779
333,80.552388,62.61032601073779
334,80.86359,63.44808135219733
335,81.093992,63.44808135219733
336,81.344852,62.61032601073779
337,81.596025,63.11626598256623
338,81.844577,62.2842350186297
339,82.161403,62.61032601073779
340,82.389988,61.784964606793466
341,82.639813,63.11626598256623
342,82.866439,63.11626598256623
343,83.113628,63.44808135219733
344,83.424618,62.87732526224856
345,83.638946,63.44808135219733
346,83.849511,62.87732526224856
347,84.074378,62.87732526224856
348,84.304424,63.99253910147635
349,84.598526,62.61032601073779
350,84.827081,64.5096484266167
351,85.047275,62.87732526224856
352,85.280108,63.11626598256623
353,85.508708,63.99253910147635
354,85.803694,63.71951136155134
355,86.0393,62.87732526224856
356,86.252073,62.344880963550324
357,86.470055,62.61032601073779
358,86.748964,63.71951136155134
359,87.028099,62.87732526224856
360,87.229609,63.14589055399941
361,87.42523,62.311801186813604
362,87.626363,62.61032601073779
363,87.855079,63.99253910147635
364,88.145476,63.44808135219733
365,88.380893,63.99253910147635
366,88.600955,63.71951136155134
367,88.839201,63.44808135219733
368,89.089329,62.2842350186297
369,89.389868,62.61032601073779
370,89.660563,61.784964606793466
371,89.885115,63.11626598256623
372,90.135102,62.61032601073779
373,90.376753,63.44808135219733
374,90.667807,63.99253910147635
375,90.888185,62.61032601073779
376,91.080527,63.44808135219733
377,91.293348,63.44808135219733
378,91.51158,62.87732526224856
379,91.812578,63.38542279501613
380,92.045526,62.87732526224856
381,92.264636,62.87732526224856
382,92.484081,62.61032601073779
383,92.714822,62.61032601073779
384,93.064431,62.61032601073779
385,93.304205,62.87732526224856
386,93.602613,63.44808135219733
387,93.870085,62.61032601073779
388,94.147054,62.87732526224856
389,94.35557,62.61032601073779
390,94.557348,63.44808135219733
391,94.758054,62.344880963550324
392,94.9793,62.87732526224856
393,95.278378,62.61032601073779
394,95.511462,62.61032601073779
395,95.752059,62.61032601073779
396,96.003119,63.44808135219733
397,96.233336,63.44808135219733
398,96.538766,62.61032601073779
399,96.776384,62.61032601073779
400,97.03011,63.71951136155134
401,97.277484,62.87732526224856
402,97.506995,62.87732526224856
403,97.789222,62.87732526224856
404,98.026011,62.87732526224856
405,98.234903,62.61032601073779
406,98.435987,63.178236961084394
407,98.653202,62.87732526224856
408,98.950413,62.61032601073779
409,99.193993,63.71951136155134
410,99.423688,62.87732526224856
411,99.64726,62.344880963550324
412,99.90325,63.38542279501613
413,100.171205,63.11626598256623
414,100.406884,63.44808135219733
415,100.641283,63.96079103664127
416,100.878507,63.44808135219733
417,101.080259,63.71951136155134
418,101.348428,62.61032601073779
419,101.554974,62.61032601073779
420,101.752207,62.2842350186297
421,101.952147,62.87732526224856
422,102.150061,63.44808135219733
423,102.346726,63.38542279501613
424,102.624722,62.61032601073779
425,102.827911,62.344880963550324
426,103.03646,62.87732526224856
427,103.27117,63.44808135219733
428,103.501806,62.87732526224856
429,103.805792,63.11626598256623
430,104.192121,63.38542279501613
431,104.440269,62.61032601073779
432,104.6909,62.848675933615425
433,105.007709,64.23441441089267
434,105.25371,61.784964606793466
435,105.504956,63.44808135219733
436,105.733524,63.11626598256623
437,105.962767,62.61032601073779
438,106.224776,62.61032601073779
439,106.448311,62.61032601073779
440,106.670395,63.44808135219733
441,106.894361,62.87732526224856
442,107.172213,62.87732526224856
443,107.476949,63.96079103664127
444,107.70571,62.87732526224856
445,107.969934,62.61032601073779
446,108.164848,62.87732526224856
447,108.383926,62.848675933615425
448,108.682173,63.11626598256623
449,108.887614,63.71951136155134
450,109.087264,63.44808135219733
451,109.289841,63.68876609365556
452,109.487365,62.87732526224856
453,109.678439,64.23441441089267
454,109.923661,63.38542279501613
455,110.159715,63.44808135219733
456,110.413089,63.38542279501613
457,110.643493,63.71951136155134
458,110.871121,62.61032601073779
459,111.183439,62.344880963550324
460,111.417735,62.344880963550324
461,111.646845,63.44808135219733
462,111.897272,62.61032601073779
463,112.143077,62.61032601073779
464,112.434833,62.848675933615425
465,112.688011,63.38542279501613
466,112.917499,62.848675933615425
467,113.147158,63.38542279501613
468,113.36649,62.61032601073779
469,113.63077,62.848675933615425
470,113.847563,63.11626598256623
471,114.067139,62.61032601073779
472,114.381663,62.344880963550324
473,114.628707,63.11626598256623
474,114.945086,63.96079103664127
475,115.169942,62.87732526224856
476,115.392066,62.344880963550324
477,115.60869,63.11626598256623
478,115.842082,63.41832748306594
479,116.099172,63.11626598256623
480,116.28427,63.11626598256623
481,116.470954,62.61032601073779
482,116.680679,62.87732526224856
483,116.884378,62.848675933615425
484,117.169536,63.38542279501613
485,117.382608,62.61032601073779
486,117.615374,62.61032601073779
487,117.869316,62.848675933615425
488,118.108792,63.96079103664127
489,118.400797,62.848675933615425
490,118.636307,62.848675933615425
491,118.868233,62.61032601073779
492,119.099022,63.44808135219733
493,119.334419,62.90996618632747
494,119.612303,63.11626598256623
495,119.873608,62.61032601073779
496,120.163946,63.11626598256623
497,120.392723,62.848675933615425
498,120.666799,62.61032601073779
499,120.934448,62.848675933615425
500,121.156563,63.68876609365556
501,121.372687,63.38542279501613
502,121.602685,64.23441441089267
503,121.905027,63.96079103664127
504,122.146192,63.44808135219733
505,122.374941,63.96079103664127
506,122.596679,62.848675933615425
507,122.816897,62.344880963550324
508,123.109657,63.41832748306594
509,123.321452,62.344880963550324
510,123.505195,62.61032601073779
511,123.696823,62.61032601073779
512,123.895923,63.38542279501613
513,124.096686,63.11626598256623
514,124.354795,62.87732526224856
515,124.557641,63.178236961084394
516,124.865254,62.848675933615425
517,125.113442,63.96079103664127
518,125.345967,62.344880963550324
519,125.629895,63.11626598256623
520,125.87972,62.848675933615425
521,126.14047,63.38542279501613
522,126.390679,62.61032601073779
523,126.692589,62.344880963550324
524,126.934949,62.61032601073779
525,127.182502,62.58264082504856
526,127.452579,62.848675933615425
527,127.682041,63.11626598256623
528,127.958441,62.848675933615425
529,128.172503,63.38542279501613
530,128.387928,62.848675933615425
531,128.61086,63.96079103664127
532,128.840255,63.96079103664127
533,129.133479,62.344880963550324
534,129.370152,63.38542279501613
535,129.623284,63.38542279501613
536,129.817555,62.848675933615425
537,130.019544,62.848675933615425
538,130.324211,63.38542279501613
539,130.53876,62.87732526224856
540,130.750149,63.11626598256623
541,130.946169,63.11626598256623
542,131.14334,62.344880963550324
543,131.409699,62.2842350186297
544,131.61273,63.38542279501613
545,131.811091,63.11626598256623
546,132.023937,63.96079103664127
547,132.253053,62.344880963550324
548,132.575042,62.344880963550324
549,132.810281,62.848675933615425
550,133.050768,63.96079103664127
551,133.29912,62.848675933615425
552,133.527642,63.96079103664127
553,133.81809,63.96079103664127
554,134.054739,63.68876609365556
555,134.302261,62.848675933615425
556,134.532903,62.54900821013163
557,134.785153,62.848675933615425
558,135.081296,63.96079103664127
559,135.344728,63.11626598256623
560,135.561646,63.11626598256623
561,135.780054,63.68876609365556
562,136.002544,63.96079103664127
563,136.28593,63.11626598256623
564,136.596578,62.2842350186297
565,136.825047,63.11626598256623
566,137.048405,63.96079103664127
567,137.263808,63.96079103664127
568,137.554042,64.23441441089267
569,137.785508,62.61032601073779
570,138.006206,63.96079103664127
571,138.226827,63.11626598256623
572,138.447045,63.11626598256623
573,138.714281,63.38542279501613
574,138.934697,62.61032601073779
575,139.135847,63.178236961084394
576,139.351741,63.96079103664127
577,139.583873,63.11626598256623
578,139.878415,62.848675933615425
579,140.108075,63.38542279501613
580,140.36019,63.11626598256623
581,140.609744,63.11626598256623
582,140.861881,63.96079103664127
583,141.158973,63.44808135219733
584,141.405979,63.11626598256623
585,141.653077,62.848675933615425
586,141.903596,63.11626598256623
587,142.132926,63.11626598256623
588,142.422411,63.11626598256623
589,142.634277,63.41832748306594
590,142.842547,63.11626598256623
591,143.054657,63.11626598256623
592,143.268426,63.178236961084394
593,143.551326,63.96079103664127
594,143.773885,63.11626598256623
595,143.994571,63.11626598256623
596,144.218725,62.58264082504856
597,144.448279,63.11626598256623
598,144.741442,63.96079103664127
599,144.969323,63.96079103664127
600,145.20392,63.11626598256623
601,145.431897,63.96079103664127
602,145.67761,63.11626598256623
603,145.949321,63.96079103664127
604,146.159087,63.11626598256623
605,146.358354,63.11626598256623
606,146.560152,63.11626598256623
607,146.756915,62.58264082504856
608,147.050839,63.11626598256623
609,147.280333,63.11626598256623
610,147.501009,63.96079103664127
611,147.727668,63.96079103664127
612,147.956055,63.96079103664127
613,148.24451,63.96079103664127
614,148.479844,63.11626598256623
615,148.708731,63.96079103664127
616,148.939719,63.11626598256623
617,149.194785,63.11626598256623
618,149.500265,62.848675933615425
619,149.73783,63.11626598256623
620,149.965974,63.11626598256623
621,150.197993,63.11626598256623
622,150.443279,63.11626598256623
