,time (s),surface tension (mN/m)
0,0.1148,35.43091433154297
1,0.362388,35.43091433154297
2,0.603305,35.43091433154297
3,0.843173,35.43091433154297
4,1.154062,35.34762524466428
5,1.423444,35.51318866549657
6,1.655337,35.883657988749796
7,1.88417,35.51318866549657
8,2.125126,35.883657988749796
9,2.433015,35.51318866549657
10,2.658502,35.51318866549657
11,2.905998,35.51318866549657
12,3.145654,35.96814434580097
13,3.369286,35.51318866549657
14,3.69301,35.51318866549657
15,3.93247,35.31121009301327
16,4.168038,35.14658768744457
17,4.415128,35.80016276094973
18,4.666263,35.43059936279348
19,4.972738,35.67982371000699
20,5.227825,35.67982371000699
21,5.484508,35.43059936279348
22,5.739071,35.67982371000699
23,6.063731,35.67982371000699
24,6.295807,35.31121009301327
25,6.521588,35.59655204502008
26,6.77397,35.67982371000699
27,7.030599,35.67982371000699
28,7.343286,35.67982371000699
29,7.590315,35.31121009301327
30,7.833136,35.67982371000699
31,8.06589,35.43059936279348
32,8.298304,35.67982371000699
33,8.605816,35.59655204502008
34,8.862537,35.76357877922298
35,9.112028,35.67982371000699
36,9.360553,35.84753937438326
37,9.597316,35.476897940957905
38,9.903757,35.31121009301327
39,10.176064,35.43059936279348
40,10.439163,35.67982371000699
41,10.678337,35.96814434580097
42,10.975394,35.67982371000699
43,11.215675,35.84753937438326
44,11.454102,35.31121009301327
45,11.697376,35.67982371000699
46,11.932874,35.67982371000699
47,12.240246,35.476897940957905
48,12.471833,35.43059936279348
49,12.703031,35.76357877922298
50,12.939279,35.96814434580097
51,13.166222,35.67982371000699
52,13.469362,36.13721528276431
53,13.706523,35.14658768744457
54,13.93089,35.67982371000699
55,14.165435,35.31121009301327
56,14.39294,35.31121009301327
57,14.69911,35.67982371000699
58,14.961988,35.14658768744457
59,15.21574,35.31121009301327
60,15.459715,35.14658768744457
61,15.774324,35.476897940957905
62,16.009799,35.14658768744457
63,16.253423,35.67982371000699
64,16.493152,35.67982371000699
65,16.730566,35.476897940957905
66,17.044117,35.476897940957905
67,17.297826,35.67982371000699
68,17.546685,35.67982371000699
69,17.77937,35.14658768744457
70,18.010722,35.43059936279348
71,18.300338,35.67982371000699
72,18.554063,35.31121009301327
73,18.79624,35.31121009301327
74,19.037437,35.67982371000699
75,19.281317,35.67982371000699
76,19.576506,35.67982371000699
77,19.820999,35.14658768744457
78,20.060247,35.67982371000699
79,20.30661,35.67982371000699
80,20.563214,35.14658768744457
81,20.982016,35.476897940957905
82,21.231123,35.14658768744457
83,21.491914,35.84753937438326
84,21.733317,35.67982371000699
85,21.958341,35.476897940957905
86,22.259985,35.67982371000699
87,22.514076,36.13721528276431
88,22.774087,35.476897940957905
89,22.999028,35.67982371000699
90,23.229325,35.14658768744457
91,23.525121,35.84753937438326
92,23.76618,35.84753937438326
93,24.002149,35.67982371000699
94,24.232696,35.31121009301327
95,24.471922,35.476897940957905
96,24.852955,35.31121009301327
97,25.091178,35.84753937438326
98,25.322325,35.67982371000699
99,25.557542,35.14658768744457
100,25.791958,35.84753937438326
101,26.083547,35.67982371000699
102,26.315948,35.84753937438326
103,26.559681,35.67982371000699
104,26.795816,35.80016276094973
105,27.033999,35.67982371000699
106,27.348204,35.31121009301327
107,27.595306,35.67982371000699
108,27.842344,35.14658768744457
109,28.093933,35.67982371000699
110,28.324036,35.31121009301327
111,28.657011,35.31121009301327
112,28.899598,35.14658768744457
113,29.144248,35.67982371000699
114,29.386046,35.14658768744457
115,29.615145,35.476897940957905
116,29.906784,35.31121009301327
117,30.159238,35.476897940957905
118,30.393882,35.67982371000699
119,30.619107,35.476897940957905
120,30.85942,35.31121009301327
121,31.232782,35.14658768744457
122,31.478876,35.476897940957905
123,31.712171,35.14658768744457
124,31.955509,35.476897940957905
125,32.189653,35.14658768744457
126,32.496483,35.31121009301327
127,32.752492,36.13721528276431
128,32.979074,35.476897940957905
129,33.208806,35.476897940957905
130,33.459869,35.31121009301327
131,33.761942,35.476897940957905
132,34.021073,35.59655204502008
133,34.264248,35.476897940957905
134,34.489512,35.476897940957905
135,34.713295,35.31121009301327
136,35.021882,35.67982371000699
137,35.260349,35.67982371000699
138,35.485407,35.31121009301327
139,35.718727,35.476897940957905
140,35.965397,35.476897940957905
141,36.268417,35.476897940957905
142,36.515705,35.476897940957905
143,36.762519,35.84753937438326
144,36.991539,35.31121009301327
145,37.234661,35.31121009301327
146,37.531093,35.14658768744457
147,37.784302,35.476897940957905
148,38.021501,35.67982371000699
149,38.248894,35.67982371000699
150,38.481453,35.476897940957905
151,38.777373,35.67982371000699
152,39.039139,35.476897940957905
153,39.262965,35.476897940957905
154,39.520299,35.476897940957905
155,39.767674,35.14658768744457
156,40.068269,35.31121009301327
157,40.311149,35.14658768744457
158,40.559296,35.476897940957905
159,40.783482,35.31121009301327
160,41.022046,35.476897940957905
161,41.34755,35.31121009301327
162,41.674477,35.31121009301327
163,41.897579,35.476897940957905
164,42.131616,35.67982371000699
165,42.419057,35.476897940957905
166,42.648771,35.14658768744457
167,42.888324,35.84753937438326
168,43.129219,35.476897940957905
169,43.352937,35.476897940957905
170,43.650224,35.476897940957905
171,43.920969,35.14658768744457
172,44.153002,35.67982371000699
173,44.385065,35.14658768744457
174,44.631901,35.476897940957905
175,44.946645,35.476897940957905
176,45.181825,35.67982371000699
177,45.414589,35.476897940957905
178,45.656154,35.476897940957905
179,45.88194,35.14658768744457
180,46.17521,35.476897940957905
181,46.420118,35.67982371000699
182,46.709157,35.476897940957905
183,46.936478,35.14658768744457
184,47.159843,35.14658768744457
185,47.474266,35.476897940957905
186,47.706864,35.31121009301327
187,47.960052,35.476897940957905
188,48.204388,35.476897940957905
189,48.438532,35.476897940957905
190,48.744561,35.31121009301327
191,48.986805,35.476897940957905
192,49.22173,35.31121009301327
193,49.479758,35.476897940957905
194,49.731594,35.14658768744457
195,50.038888,35.14658768744457
196,50.289716,35.476897940957905
197,50.524043,35.31121009301327
198,50.773042,35.31121009301327
199,51.008782,35.14658768744457
200,51.301787,35.476897940957905
201,51.542926,35.14658768744457
202,51.813383,35.31121009301327
203,52.093217,35.476897940957905
204,52.40755,35.476897940957905
205,52.714975,35.476897940957905
206,52.950208,35.476897940957905
207,53.203792,35.476897940957905
208,53.514091,35.31121009301327
209,53.762979,35.14658768744457
210,53.988296,35.476897940957905
211,54.225026,35.476897940957905
212,54.472497,35.476897940957905
213,54.774921,35.31121009301327
214,55.028862,35.476897940957905
215,55.260326,35.476897940957905
216,55.552426,35.31121009301327
217,55.850309,35.476897940957905
218,56.094577,35.476897940957905
219,56.32815,35.476897940957905
220,56.573223,35.31121009301327
221,56.810963,35.476897940957905
222,57.131669,35.14658768744457
223,57.372928,35.476897940957905
224,57.622386,35.14658768744457
225,57.870818,35.476897940957905
226,58.101272,35.31121009301327
227,58.409956,35.476897940957905
228,58.65726,35.476897940957905
229,58.958325,35.476897940957905
230,59.20784,35.476897940957905
231,59.499497,35.31121009301327
232,59.751508,35.31121009301327
233,59.979566,35.59655204502008
234,60.213305,35.476897940957905
235,60.439918,35.476897940957905
236,60.76008,35.67982371000699
237,61.025859,35.31121009301327
238,61.268633,35.31121009301327
239,61.526901,35.31121009301327
240,61.849094,35.31121009301327
241,62.090123,35.14658768744457
242,62.36466,35.31121009301327
