,time (s),surface tension (mN/m)
0,0.0,44.47706649523267
1,0.216993,43.83241361860072
2,0.411056,43.83241361860072
3,0.613455,44.47706649523267
4,0.809507,43.83241361860072
5,1.050085,43.716377658238784
6,1.25407,44.272712903052025
7,1.513522,44.47706649523267
8,1.765023,43.83241361860072
9,2.037529,43.83241361860072
10,2.290655,44.47706649523267
11,2.547291,44.272712903052025
12,2.76934,44.272712903052025
13,3.001069,43.48105300234543
14,3.254696,43.83241361860072
15,3.51562,43.9178228478462
16,3.737253,44.272712903052025
17,3.955721,43.9178228478462
18,4.15104,43.9178228478462
19,4.344147,44.47706649523267
20,4.591418,43.83241361860072
21,4.796899,44.03440302633271
22,4.985853,44.47706649523267
23,5.210528,43.48105300234543
24,5.443393,44.47706649523267
25,5.742787,44.120538341684664
26,5.995084,43.48105300234543
27,6.236817,43.68142326303717
28,6.487679,43.83241361860072
29,6.714069,44.272712903052025
30,6.969541,43.83241361860072
31,7.224157,44.03440302633271
32,7.433598,43.9178228478462
33,7.665239,43.83241361860072
34,7.868868,44.324534620915934
35,8.12809,43.19812068948848
36,8.32208,43.83241361860072
37,8.521604,44.03440302633271
38,8.717358,44.272712903052025
39,8.906943,44.03440302633271
40,9.096515,44.03440302633271
41,9.332882,43.63168739632286
42,9.580915,43.83241361860072
43,9.822623,43.63168739632286
44,10.079076,43.83241361860072
45,10.483917,44.120538341684664
46,10.714413,43.83241361860072
47,10.933684,43.39652876633531
48,11.188341,43.48105300234543
49,11.393106,43.83241361860072
50,11.667544,42.85184456518928
51,11.88394,43.48105300234543
52,12.086036,43.19812068948848
53,12.27446,43.63168739632286
54,12.467469,43.83241361860072
55,12.71343,43.39652876633531
56,12.912554,43.48105300234543
57,13.101058,44.272712903052025
58,13.340017,43.83241361860072
59,13.606084,43.048662202943305
60,13.917859,43.28193580141355
61,14.168862,43.83241361860072
62,14.420441,43.63168739632286
63,14.633643,43.83241361860072
64,14.841244,43.39652876633531
65,15.130625,44.03440302633271
66,15.339665,43.39652876633531
67,15.557131,43.83241361860072
68,15.775678,43.48105300234543
69,15.985594,43.83241361860072
70,16.22029,43.48105300234543
71,16.420818,43.39652876633531
72,16.608611,43.19812068948848
73,16.799486,43.39652876633531
74,16.99419,43.39652876633531
75,17.27572,43.39652876633531
76,17.533558,43.048662202943305
77,17.802449,43.83241361860072
78,18.044856,43.39652876633531
79,18.347403,43.83241361860072
80,18.581909,43.39652876633531
81,18.833663,43.39652876633531
82,19.104305,43.83241361860072
83,19.317343,43.83241361860072
84,19.589465,43.19812068948848
85,19.804751,43.83241361860072
86,20.004395,43.39652876633531
87,20.204616,43.39652876633531
88,20.396502,43.19812068948848
89,20.709753,43.19812068948848
90,20.900529,43.83241361860072
91,21.088555,42.85184456518928
92,21.280042,43.19812068948848
93,21.52965,43.48105300234543
94,21.825297,43.83241361860072
95,22.084378,43.39652876633531
96,22.33855,43.39652876633531
97,22.566095,44.03440302633271
98,22.776449,43.19812068948848
99,23.075187,43.39652876633531
100,23.322585,43.39652876633531
101,23.536989,43.19812068948848
102,23.767889,43.048662202943305
103,24.007169,43.19812068948848
104,24.242208,43.19812068948848
105,24.441461,43.19812068948848
106,24.629515,43.39652876633531
107,24.818234,43.19812068948848
108,25.004223,43.39652876633531
109,25.181482,44.03440302633271
110,25.4836,43.048662202943305
111,25.759953,43.39652876633531
112,26.011826,43.83241361860072
113,26.262131,43.83241361860072
114,26.537607,43.19812068948848
115,26.762226,43.39652876633531
116,26.97437,43.596182887935896
117,27.226173,42.768892435832825
118,27.448105,43.19812068948848
119,27.733803,43.19812068948848
120,27.971866,43.83241361860072
121,28.166248,43.39652876633531
122,28.368092,43.39652876633531
123,28.56839,43.048662202943305
124,28.82672,43.39652876633531
125,29.022189,42.768892435832825
126,29.223317,43.39652876633531
127,29.411794,43.39652876633531
128,29.64364,43.39652876633531
129,29.924573,43.19812068948848
130,30.16673,42.768892435832825
131,30.416164,42.768892435832825
132,30.659347,43.19812068948848
133,30.903283,42.768892435832825
134,31.218746,43.39652876633531
135,31.450854,43.24671589715666
136,31.651332,43.39652876633531
137,31.863426,43.19812068948848
138,32.078202,42.62060314083144
139,32.313438,42.62060314083144
140,32.507497,43.39652876633531
141,32.696106,42.965010655155595
142,32.886296,43.596182887935896
143,33.072023,43.596182887935896
144,33.266776,42.965010655155595
145,33.550496,42.965010655155595
146,33.799657,43.19812068948848
147,34.050456,43.048662202943305
148,34.298665,43.39652876633531
149,34.539374,43.39652876633531
150,34.77814,43.39652876633531
151,34.989425,42.768892435832825
152,35.244528,42.23272024563782
153,35.454588,42.62060314083144
154,35.679071,42.426057005104155
155,35.954687,43.048662202943305
156,36.165329,43.19812068948848
157,36.363499,42.768892435832825
158,36.560012,42.965010655155595
159,36.752256,42.768892435832825
160,36.947783,42.965010655155595
161,37.177273,42.62060314083144
162,37.367255,42.965010655155595
163,37.599018,42.768892435832825
164,37.836396,42.965010655155595
165,38.080338,42.62060314083144
166,38.394997,43.39652876633531
167,38.635082,42.23272024563782
168,38.871118,42.965010655155595
169,39.081526,43.39652876633531
170,39.337764,43.39652876633531
171,39.584123,42.426057005104155
172,39.802348,43.19812068948848
173,40.040003,43.39652876633531
174,40.236689,43.39652876633531
175,40.437978,43.39652876633531
176,40.676005,42.768892435832825
177,40.88301,42.62060314083144
178,41.131316,42.768892435832825
179,41.321495,43.048662202943305
180,41.547864,42.57399336546875
181,41.835631,42.426057005104155
182,42.091856,42.62060314083144
183,42.350316,42.768892435832825
184,42.569624,43.39652876633531
185,42.779939,42.965010655155595
186,43.033587,42.965010655155595
187,43.287008,42.965010655155595
188,43.487735,43.39652876633531
189,43.70432,42.768892435832825
190,43.927927,41.81341738226066
191,44.188046,42.768892435832825
192,44.384109,42.965010655155595
193,44.577772,42.768892435832825
194,44.767628,42.965010655155595
195,44.968167,42.426057005104155
196,45.16195,42.768892435832825
197,45.450586,42.965010655155595
198,45.684181,42.768892435832825
199,45.930847,42.62060314083144
200,46.174231,42.965010655155595
201,46.434122,42.62060314083144
202,46.68908,42.53781215023504
203,46.916151,42.62060314083144
204,47.150034,42.768892435832825
205,47.399552,42.426057005104155
206,47.614489,42.768892435832825
207,47.891009,42.3439558627335
208,48.100511,42.965010655155595
209,48.297051,42.3439558627335
210,48.498582,42.62060314083144
211,48.692801,42.965010655155595
212,48.883723,42.004526723465126
213,49.122576,42.965010655155595
214,49.321711,42.768892435832825
215,49.522685,42.426057005104155
216,49.758641,42.62060314083144
217,50.045779,42.62060314083144
218,50.32601,42.768892435832825
219,50.570454,42.768892435832825
220,50.808098,43.16235801804371
221,51.024919,42.965010655155595
222,51.236159,42.965010655155595
223,51.624151,42.965010655155595
224,51.85325,42.3439558627335
225,52.080923,42.965010655155595
226,52.297855,42.965010655155595
227,52.489102,42.3439558627335
228,52.724503,42.965010655155595
229,52.929256,42.62060314083144
230,53.118868,42.965010655155595
231,53.306461,42.3439558627335
232,53.492146,42.3439558627335
233,53.721521,42.768892435832825
234,53.996656,42.62060314083144
235,54.232763,42.3439558627335
236,54.47562,43.16235801804371
237,54.712504,42.53781215023504
238,54.932732,42.3439558627335
239,55.184588,42.53781215023504
240,55.429338,42.965010655155595
241,55.643028,42.426057005104155
242,55.859938,42.426057005104155
243,56.078088,42.965010655155595
244,56.33735,42.19682905901608
245,56.53731,42.965010655155595
246,56.730015,42.3439558627335
247,56.921483,42.965010655155595
248,57.114119,42.62060314083144
249,57.317113,42.965010655155595
250,57.607756,43.16235801804371
251,57.858084,42.965010655155595
252,58.097668,42.3439558627335
253,58.400775,42.62060314083144
254,58.689089,42.19682905901608
255,58.902294,42.3439558627335
256,59.152948,42.965010655155595
257,59.381344,42.53781215023504
258,59.57796,42.965010655155595
259,59.854059,42.53781215023504
260,60.081247,42.62060314083144
261,60.285403,42.19682905901608
262,60.475214,42.62060314083144
263,60.671334,42.53781215023504
264,60.905161,42.3439558627335
265,61.110714,42.3439558627335
266,61.300599,42.004526723465126
267,61.516073,42.19682905901608
268,61.858064,42.19682905901608
269,62.170054,42.53781215023504
270,62.419907,42.19682905901608
271,62.656597,42.3439558627335
272,62.860249,42.53781215023504
273,63.082968,42.3439558627335
274,63.355555,42.53781215023504
275,63.584855,42.3439558627335
276,63.791201,42.3439558627335
277,64.004749,42.19682905901608
278,64.203266,42.3439558627335
279,64.426314,42.965010655155595
280,64.627435,42.19682905901608
281,64.816521,42.53781215023504
282,65.015677,42.004526723465126
283,65.204839,42.004526723465126
284,65.505354,42.53781215023504
285,65.752611,42.004526723465126
286,65.993344,42.19682905901608
287,66.29482,42.19682905901608
288,66.585568,42.3439558627335
289,66.7992,42.19682905901608
290,67.013097,42.3439558627335
291,67.300869,42.53781215023504
292,67.507731,42.53781215023504
293,67.786019,42.19682905901608
294,68.011482,42.53781215023504
295,68.211672,42.3439558627335
296,68.407753,42.53781215023504
297,68.615661,42.19682905901608
298,68.858041,42.19682905901608
299,69.054442,42.19682905901608
300,69.256864,42.39033415367989
301,69.456965,42.19682905901608
302,69.695918,42.39033415367989
303,69.994418,42.3439558627335
304,70.242626,42.19682905901608
305,70.491753,42.19682905901608
306,70.716432,42.53781215023504
307,70.929393,42.39033415367989
308,71.243225,42.19682905901608
309,71.471953,42.19682905901608
310,71.692731,42.53781215023504
311,71.915412,42.1148866658367
312,72.185469,42.19682905901608
313,72.412299,42.3439558627335
314,72.61881,42.53781215023504
315,72.812185,42.19682905901608
316,73.002114,42.3439558627335
317,73.203296,42.19682905901608
318,73.46808,42.19682905901608
319,73.730698,42.19682905901608
320,73.981005,42.53781215023504
321,74.251289,42.19682905901608
322,74.553321,42.19682905901608
323,74.775442,42.53781215023504
324,74.998737,42.53781215023504
325,75.254487,42.53781215023504
326,75.462955,42.004526723465126
327,75.737108,42.3439558627335
328,75.924913,42.3439558627335
329,76.128028,42.19682905901608
330,76.337781,42.19682905901608
331,76.528659,42.19682905901608
332,76.722541,42.73288091607548
333,76.985398,41.92326474164766
334,77.182953,41.77729374519152
335,77.401117,42.19682905901608
336,77.602362,42.53781215023504
337,77.866109,42.53781215023504
338,78.154453,42.1148866658367
339,78.406997,42.19682905901608
340,78.660005,41.77729374519152
341,78.909788,42.1148866658367
342,79.116972,41.92326474164766
343,79.419151,42.1148866658367
344,79.635661,42.53781215023504
345,79.852292,42.004526723465126
346,80.066536,41.92326474164766
347,80.290336,41.587207862297326
348,80.507674,42.19682905901608
349,80.70744,42.19682905901608
350,80.908934,41.587207862297326
351,81.095159,42.19682905901608
352,81.29049,41.77729374519152
353,81.502673,42.1148866658367
354,81.786828,41.92326474164766
355,82.060554,42.19682905901608
356,82.316567,41.77729374519152
357,82.686159,42.3439558627335
358,82.954756,42.1148866658367
359,83.187874,42.53781215023504
360,83.452459,42.53781215023504
361,83.655035,42.3439558627335
362,83.876149,41.92326474164766
363,84.123548,42.19682905901608
364,84.321912,42.1148866658367
365,84.524825,42.19682905901608
366,84.716453,41.77729374519152
367,84.909673,41.77729374519152
368,85.111008,41.92326474164766
369,85.353443,41.39829882007629
370,85.564442,41.92326474164766
371,85.825764,41.92326474164766
372,86.078231,42.1148866658367
373,86.329419,42.53781215023504
374,86.633832,41.92326474164766
375,86.865786,42.1148866658367
376,87.073744,42.53781215023504
377,87.287883,42.53781215023504
378,87.547339,41.92326474164766
379,87.802963,41.92326474164766
380,88.017794,41.77729374519152
381,88.231835,42.3439558627335
382,88.452414,41.587207862297326
383,88.655411,42.19682905901608
384,88.889669,41.92326474164766
385,89.083897,42.1148866658367
386,89.281793,41.587207862297326
387,89.475761,42.1148866658367
388,89.6869,42.53781215023504
389,89.996038,42.19682905901608
390,90.24625,41.587207862297326
391,90.475407,42.53781215023504
392,90.714506,42.53781215023504
393,90.93314,42.19682905901608
394,91.210139,42.19682905901608
395,91.484802,42.53781215023504
396,91.694681,41.92326474164766
397,91.924635,41.92326474164766
398,92.162384,41.77729374519152
399,92.416111,42.1148866658367
400,92.61473,41.92326474164766
401,92.861091,41.92326474164766
402,93.063697,41.92326474164766
403,93.25672,42.19682905901608
404,93.485157,41.77729374519152
405,93.712892,41.77729374519152
406,93.984739,42.1148866658367
407,94.224325,41.77729374519152
408,94.468098,41.77729374519152
409,94.762073,42.1148866658367
410,94.985362,42.53781215023504
411,95.19463,41.77729374519152
412,95.450974,41.587207862297326
413,95.675898,41.77729374519152
414,95.94617,42.1148866658367
415,96.162924,42.1148866658367
416,96.361385,42.1148866658367
417,96.555862,42.1148866658367
418,96.757281,42.1148866658367
419,96.990519,42.1148866658367
420,97.196237,41.77729374519152
421,97.394211,42.1148866658367
422,97.580621,41.92326474164766
423,97.816941,41.587207862297326
424,98.101077,41.77729374519152
425,98.354496,41.92326474164766
426,98.596745,41.77729374519152
427,98.851203,41.587207862297326
428,99.057633,42.1148866658367
429,99.322038,42.1148866658367
430,99.559568,41.92326474164766
431,99.779605,42.1148866658367
432,100.007539,41.92326474164766
433,100.224114,41.92326474164766
434,100.447114,41.77729374519152
435,100.648969,41.77729374519152
436,100.838292,41.77729374519152
437,101.02774,41.92326474164766
438,101.215463,41.77729374519152
439,101.407887,41.77729374519152
440,101.692732,42.53781215023504
441,101.940484,42.1148866658367
442,102.192975,41.92326474164766
443,102.432746,41.92326474164766
444,102.676792,42.1148866658367
445,102.95265,41.92326474164766
446,103.280358,42.1148866658367
447,103.531169,41.77729374519152
448,103.738318,41.506773381106285
449,104.018794,41.361951524715664
450,104.244196,41.77729374519152
451,104.444036,41.587207862297326
452,104.640831,42.1148866658367
453,104.839691,41.587207862297326
454,105.077372,42.1148866658367
455,105.279365,41.69618815823189
456,105.472834,42.1148866658367
457,105.664553,41.96856608616554
458,105.898269,41.587207862297326
459,106.188741,42.1148866658367
460,106.431364,41.77729374519152
461,106.660719,41.92326474164766
462,106.90904,42.1148866658367
463,107.118369,41.506773381106285
464,107.393169,41.31852889691845
465,107.663481,41.92326474164766
466,107.855287,42.1148866658367
467,108.07756,42.1148866658367
468,108.296496,41.96856608616554
469,108.583985,41.92326474164766
470,108.827602,41.587207862297326
471,109.024341,42.1148866658367
472,109.225129,41.77729374519152
473,109.412968,41.77729374519152
474,109.642506,42.1148866658367
475,109.86097,42.1148866658367
476,110.104053,41.506773381106285
477,110.356164,42.1148866658367
478,110.587122,41.69618815823189
479,110.890291,41.69618815823189
480,111.130489,41.506773381106285
481,111.34399,42.1148866658367
482,111.601256,41.506773381106285
483,111.805913,41.69618815823189
484,112.089791,41.69618815823189
485,112.302576,41.69618815823189
486,112.490845,41.77729374519152
487,112.680199,41.17405509639462
488,112.868798,41.506773381106285
489,113.056889,41.69618815823189
490,113.286606,41.69618815823189
491,113.494442,41.506773381106285
492,113.729786,41.69618815823189
493,113.950845,41.17405509639462
494,114.199514,41.506773381106285
495,114.473965,41.31852889691845
496,114.72138,41.506773381106285
497,114.929284,41.361951524715664
498,115.137677,42.1148866658367
499,115.415473,41.69618815823189
500,115.678374,41.17405509639462
501,115.908819,41.506773381106285
502,116.117424,41.361951524715664
503,116.334254,42.1148866658367
504,116.53465,42.30770463560663
505,116.762129,41.92326474164766
506,116.965374,41.17405509639462
507,117.160223,41.69618815823189
508,117.351571,42.1148866658367
509,117.571744,41.361951524715664
510,117.874346,41.69618815823189
511,118.115217,41.506773381106285
512,118.354944,41.92326474164766
513,118.605094,41.77729374519152
514,118.815827,41.17405509639462
515,119.065826,41.506773381106285
516,119.325658,42.1148866658367
517,119.529027,41.77729374519152
518,119.739941,41.69618815823189
519,119.953086,41.17405509639462
520,120.209809,41.77729374519152
521,120.402979,41.77729374519152
522,120.59431,41.506773381106285
523,120.7935,41.17405509639462
524,120.990426,41.96856608616554
525,121.194851,41.69618815823189
526,121.45017,41.506773381106285
527,121.697862,41.506773381106285
528,121.947554,41.77729374519152
529,122.177727,41.17405509639462
530,122.427365,41.361951524715664
531,122.711695,41.69618815823189
532,122.936211,41.69618815823189
533,123.152826,41.587207862297326
534,123.414646,41.69618815823189
535,123.691296,41.506773381106285
536,123.969674,42.1148866658367
537,124.19142,41.506773381106285
538,124.392644,41.506773381106285
539,124.602159,41.17405509639462
540,124.804949,41.506773381106285
541,125.055971,41.69618815823189
542,125.265397,41.69618815823189
543,125.462172,41.69618815823189
544,125.690668,41.69618815823189
545,125.904401,41.69618815823189
546,126.267657,41.77729374519152
547,126.521855,41.69618815823189
548,126.7487,41.506773381106285
549,127.005211,41.506773381106285
550,127.219055,41.506773381106285
551,127.488086,41.69618815823189
552,127.747234,41.361951524715664
553,127.957112,41.69618815823189
554,128.17855,41.551018337277874
555,128.417214,41.361951524715664
556,128.654057,41.69618815823189
557,128.863216,41.69618815823189
558,129.052008,42.1148866658367
559,129.243105,41.31852889691845
560,129.439862,41.09443661980866
561,129.626807,41.587207862297326
562,129.888002,41.69618815823189
563,130.12039,42.30770463560663
564,130.353069,42.1148866658367
565,130.617206,42.1148866658367
566,130.847553,41.506773381106285
567,131.139527,41.31852889691845
568,131.359844,41.506773381106285
569,131.62526,41.361951524715664
570,131.864628,41.69618815823189
571,132.063673,42.1148866658367
572,132.342046,41.31852889691845
573,132.55252,41.361951524715664
574,132.748322,41.361951524715664
575,132.949868,41.506773381106285
576,133.14241,40.98731957994345
577,133.389262,41.506773381106285
578,133.582878,41.506773381106285
579,133.77198,41.361951524715664
580,134.062467,40.950757253685936
581,134.292808,41.17405509639462
582,134.618506,41.506773381106285
583,134.870006,41.361951524715664
584,135.099803,41.28167111872042
585,135.317267,41.69618815823189
586,135.591552,41.69618815823189
587,135.894874,41.69618815823189
588,136.105193,41.506773381106285
589,136.337306,41.28167111872042
590,136.54725,41.506773381106285
591,136.757868,41.551018337277874
592,137.001171,41.69618815823189
593,137.207386,41.506773381106285
594,137.403602,41.69618815823189
595,137.60834,41.17405509639462
596,137.798091,41.69618815823189
597,138.068573,41.506773381106285
598,138.3065,41.506773381106285
599,138.562097,41.69618815823189
600,138.799901,41.506773381106285
601,139.026238,41.69618815823189
602,139.274718,40.950757253685936
603,139.484692,41.506773381106285
604,139.681941,41.69618815823189
605,139.911033,41.886782777210655
606,140.136321,41.09443661980866
607,140.39808,41.886782777210655
608,140.61912,41.361951524715664
609,140.813345,41.886782777210655
610,141.008423,41.506773381106285
611,141.203021,41.69618815823189
612,141.449482,41.69618815823189
613,141.640071,41.69618815823189
614,141.852175,41.69618815823189
615,142.07725,41.69618815823189
616,142.296896,41.28167111872042
617,142.571156,41.69618815823189
618,142.832277,41.361951524715664
619,143.10133,41.69618815823189
620,143.337675,41.69618815823189
621,143.564213,41.69618815823189
