,time (s),surface tension (mN/m)
0,0.0,71.68172574767937
1,0.208954,73.86794462394063
2,0.383737,72.9173381802542
3,0.634719,72.61373501672878
4,0.881399,72.61373501672878
5,1.169815,73.86794462394063
6,1.425332,74.46971765420705
7,1.670972,72.9173381802542
8,1.880353,72.61373501672878
9,2.092098,72.9173381802542
10,2.400483,73.22269031288529
11,2.612907,73.22269031288529
12,2.843897,72.61373501672878
13,3.073929,71.3846544392901
14,3.285826,72.9173381802542
15,3.535309,72.9173381802542
16,3.73893,73.51136699449947
17,3.93156,72.9173381802542
18,4.122504,72.9173381802542
19,4.32863,72.9173381802542
20,4.623288,72.9173381802542
21,4.869146,72.26568851444529
22,5.108488,73.22269031288529
23,5.359124,71.9804995849591
24,5.606324,72.9173381802542
25,5.8558,72.28098861829147
26,6.080082,72.31186786694593
27,6.311572,72.61373501672878
28,6.51771,72.9173381802542
29,6.738847,72.9173381802542
30,6.992528,72.61373501672878
31,7.206484,72.31186786694593
32,7.398923,73.22269031288529
33,7.591679,73.22269031288529
34,7.796264,74.17824978019395
35,8.031196,71.68172574767937
36,8.247709,72.61373501672878
37,8.461433,72.9173381802542
38,8.695815,73.22269031288529
39,8.953124,72.31186786694593
40,9.234372,71.3846544392901
41,9.485217,73.86794462394063
42,9.717376,72.9173381802542
43,9.984212,74.17824978019395
44,10.323617,73.22269031288529
45,10.536675,72.9173381802542
46,10.770286,72.9173381802542
47,11.008039,72.61373501672878
48,11.20158,72.61373501672878
49,11.439977,72.9173381802542
50,11.640903,72.9173381802542
51,11.841528,73.22269031288529
52,12.034837,71.68172574767937
53,12.235715,74.17824978019395
54,12.41945,72.9173381802542
55,12.703538,73.20529049566407
56,12.960973,72.9173381802542
57,13.212654,71.9804995849591
58,13.463409,72.9173381802542
59,13.703211,72.61373501672878
60,13.96329,72.9173381802542
61,14.191868,73.22269031288529
62,14.387401,71.96619708319537
63,14.596482,72.61373501672878
64,14.814833,72.9173381802542
65,15.078308,72.9173381802542
66,15.274883,72.31186786694593
67,15.473901,73.22269031288529
68,15.662246,73.20529049566407
69,15.855929,72.56689634441753
70,16.060945,72.9173381802542
71,16.309536,71.9804995849591
72,16.584161,72.9173381802542
73,16.835465,72.28098861829147
74,17.086563,72.26568851444529
75,17.372212,72.61373501672878
76,17.585867,73.51136699449947
77,17.7968,73.22269031288529
78,18.012401,73.51136699449947
79,18.234366,73.22269031288529
80,18.486907,72.61373501672878
81,18.698234,73.22269031288529
82,18.909453,74.17824978019395
83,19.1274,74.78255074426355
84,19.322233,71.68172574767937
85,19.567777,74.17824978019395
86,19.759736,72.28098861829147
87,19.951971,71.9804995849591
88,20.143327,75.41366498530792
89,20.375481,74.78255074426355
90,20.770775,72.9173381802542
91,21.032799,74.17824978019395
92,21.272383,72.61373501672878
93,21.501559,71.9804995849591
94,21.72229,72.8698333434686
95,21.976466,72.9173381802542
96,22.212401,71.9804995849591
97,22.411876,72.9173381802542
98,22.643571,73.22269031288529
99,22.860237,71.9804995849591
100,23.150503,72.61373501672878
101,23.348166,72.61373501672878
102,23.539909,71.68172574767937
103,23.734692,72.9173381802542
104,23.932227,71.9804995849591
105,24.106378,71.68172574767937
106,24.375427,72.61373501672878
107,24.647448,73.22269031288529
108,24.898119,72.28098861829147
109,25.15084,72.9173381802542
110,25.455377,73.22269031288529
111,25.686609,73.22269031288529
112,25.897811,72.9173381802542
113,26.139531,72.9173381802542
114,26.342696,71.68172574767937
115,26.625157,73.81920671060247
116,26.842179,71.68172574767937
117,27.043562,72.56689634441753
118,27.238362,71.68172574767937
119,27.425864,72.9173381802542
120,27.615893,71.9804995849591
121,27.848859,71.68172574767937
122,28.0497,72.61373501672878
123,28.268135,73.22269031288529
124,28.520934,73.20529049566407
125,28.832728,73.81920671060247
126,29.143714,71.9804995849591
127,29.366118,71.9804995849591
128,29.591263,72.9173381802542
129,29.824581,72.28098861829147
130,30.102397,72.9173381802542
131,30.385819,73.51136699449947
132,30.639185,73.81920671060247
133,30.932785,73.81920671060247
134,31.203682,71.9804995849591
135,31.471879,72.61373501672878
136,31.683233,71.68172574767937
137,31.898014,73.51136699449947
138,32.106074,73.22269031288529
139,32.291943,71.9804995849591
140,32.585347,72.26568851444529
141,32.795207,72.61373501672878
142,33.024515,71.9804995849591
143,33.269941,73.22269031288529
144,33.561463,72.61373501672878
145,33.815972,73.81920671060247
146,34.049428,74.17824978019395
147,34.261827,72.9173381802542
148,34.492137,72.28098861829147
149,34.710456,73.22269031288529
150,34.982692,72.58320562861361
151,35.201355,71.68172574767937
152,35.402405,73.22269031288529
153,35.595219,72.9173381802542
154,35.794121,73.5298044867212
155,36.031095,72.28098861829147
156,36.230923,73.81920671060247
157,36.411267,72.28098861829147
158,36.645818,72.9173381802542
159,36.902263,72.58320562861361
160,37.187219,74.78255074426355
161,37.447306,71.68172574767937
162,37.698023,71.68172574767937
163,37.94816,72.28098861829147
164,38.156609,73.81920671060247
165,38.431566,73.17451239665691
166,38.637058,73.5298044867212
167,38.851089,72.8698333434686
168,39.065927,73.22269031288529
169,39.265792,72.9173381802542
170,39.499443,73.83869389183833
171,39.700641,73.22269031288529
172,39.892699,73.17451239665691
173,40.0833,72.56689634441753
174,40.298441,73.22269031288529
175,40.60316,72.88716351184293
176,40.851075,72.8698333434686
177,41.114545,74.17824978019395
178,41.459672,71.9804995849591
179,41.711753,71.9804995849591
180,41.937065,73.5298044867212
181,42.155384,72.58320562861361
182,42.363894,71.9804995849591
183,42.583893,73.51136699449947
184,42.851728,71.9804995849591
185,43.051669,74.12882282256552
186,43.248698,72.28098861829147
187,43.442293,74.44022862791932
188,43.632522,72.56689634441753
189,43.819545,74.78255074426355
190,44.065462,71.9804995849591
191,44.259864,72.58320562861361
192,44.475077,71.68172574767937
193,44.737588,71.68172574767937
194,44.986733,74.49035178468652
195,45.285003,73.22269031288529
196,45.551768,74.12882282256552
197,45.78195,73.5298044867212
198,45.999467,73.5298044867212
199,46.226067,73.83869389183833
200,46.487626,73.22269031288529
201,46.702081,71.9804995849591
202,46.910579,72.58320562861361
203,47.104325,73.81920671060247
204,47.299575,73.22269031288529
205,47.538855,73.22269031288529
206,47.729685,72.28098861829147
207,47.925119,73.22269031288529
208,48.115669,71.35291022222174
209,48.333469,72.28098861829147
210,48.659847,74.17824978019395
211,48.91536,73.22269031288529
212,49.181765,72.28098861829147
213,49.433138,72.28098861829147
214,49.645756,75.09719532077368
215,49.900189,71.68172574767937
216,50.14617,74.78255074426355
217,50.3518,71.9804995849591
218,50.580358,71.9804995849591
219,50.801366,72.28098861829147
220,51.067032,73.51136699449947
221,51.266729,73.22269031288529
222,51.461246,73.22269031288529
223,51.706053,72.9173381802542
224,51.90158,72.9173381802542
225,52.15038,71.9804995849591
226,52.379352,73.22269031288529
227,52.626686,73.22269031288529
228,52.879214,71.9804995849591
229,53.129449,73.22269031288529
230,53.418414,72.9173381802542
231,53.631008,73.22269031288529
232,53.840205,74.12882282256552
233,54.049342,72.28098861829147
234,54.259062,73.17451239665691
235,54.528654,71.9804995849591
236,54.755177,73.22269031288529
237,54.954226,72.9173381802542
238,55.154192,73.5298044867212
239,55.346944,73.81920671060247
240,55.583689,72.9173381802542
241,55.783668,73.5298044867212
242,55.973219,71.9804995849591
243,56.230287,71.05719619175875
244,56.478602,71.9804995849591
245,56.788502,73.22269031288529
246,57.057325,73.5298044867212
247,57.296472,73.22269031288529
248,57.518465,72.28098861829147
249,57.727959,73.5298044867212
250,57.9938,73.81920671060247
251,58.207618,71.9804995849591
252,58.443488,72.58320562861361
253,58.674415,74.49035178468652
254,58.911592,72.58320562861361
255,59.148446,71.05719619175875
256,59.349814,72.28098861829147
257,59.544257,72.28098861829147
258,59.744795,72.28098861829147
259,59.938239,71.9804995849591
260,60.206942,73.5298044867212
261,60.482185,73.22269031288529
262,60.742605,72.56689634441753
263,60.980108,73.5298044867212
264,61.274298,72.8698333434686
265,61.489912,72.9173381802542
266,61.699995,73.17451239665691
267,62.010453,73.22269031288529
268,62.218969,73.22269031288529
269,62.482061,72.28098861829147
270,62.703646,71.9804995849591
271,62.90101,71.9804995849591
272,63.100157,71.9804995849591
273,63.301186,71.9804995849591
274,63.534407,71.05719619175875
275,63.733894,73.5298044867212
276,63.908152,73.22269031288529
277,64.133769,72.28098861829147
278,64.385829,73.22269031288529
279,64.680836,73.5298044867212
280,64.927666,73.22269031288529
281,65.177679,73.5298044867212
282,65.448276,73.22269031288529
283,65.659394,71.05719619175875
284,65.913681,73.5298044867212
285,66.120302,73.5298044867212
286,66.345231,73.5298044867212
287,66.56043,71.9804995849591
288,66.789337,72.61373501672878
289,67.034046,73.22269031288529
290,67.229461,72.28098861829147
291,67.430316,73.22269031288529
292,67.625145,72.9173381802542
293,67.812255,73.22269031288529
294,68.029773,71.9804995849591
295,68.331849,71.9804995849591
296,68.584425,71.9804995849591
297,68.844411,71.9804995849591
298,69.087013,72.9173381802542
299,69.312992,72.9173381802542
300,69.568538,73.5298044867212
301,69.794206,73.22269031288529
302,69.991925,72.28098861829147
303,70.20991,71.05719619175875
304,70.424762,73.22269031288529
305,70.689957,73.5298044867212
306,70.883589,72.58320562861361
307,71.071979,72.58320562861361
308,71.27107,71.9804995849591
309,71.467608,73.22269031288529
310,71.670363,72.58320562861361
311,71.927391,73.5298044867212
312,72.384877,72.58320562861361
313,72.616876,73.5298044867212
314,72.85194,73.5298044867212
315,73.153308,72.28098861829147
316,73.369771,72.28098861829147
317,73.596583,72.9173381802542
318,73.804431,73.22269031288529
319,74.025044,71.65031889063766
320,74.303276,73.22269031288529
321,74.516918,73.22269031288529
322,74.710957,72.28098861829147
323,74.905846,72.58320562861361
324,75.100473,72.28098861829147
325,75.290455,73.5298044867212
326,75.531443,72.58320562861361
327,75.721121,74.44022862791932
328,75.937701,71.35291022222174
329,76.184223,73.5298044867212
330,76.425083,73.5298044867212
331,76.723179,73.5298044867212
332,76.987971,73.22269031288529
333,77.226739,73.5298044867212
334,77.444863,71.05719619175875
335,77.711702,72.58320562861361
336,77.961691,73.5298044867212
337,78.199226,73.5298044867212
338,78.426441,72.58320562861361
339,78.646289,72.58320562861361
340,78.837956,73.81920671060247
341,79.077276,72.88716351184293
342,79.280916,73.5298044867212
343,79.479537,72.28098861829147
344,79.67216,72.28098861829147
345,79.861155,72.58320562861361
346,80.135035,72.88716351184293
347,80.383166,73.17451239665691
348,80.611295,73.5298044867212
349,80.863647,72.88716351184293
350,81.112889,73.17451239665691
351,81.362251,72.28098861829147
352,81.59038,71.05719619175875
353,81.806374,74.44022862791932
354,82.016178,74.14937183754627
355,82.228356,72.58320562861361
356,82.60176,72.28098861829147
357,82.807146,73.78914878649383
358,83.001077,73.22269031288529
359,83.201822,72.58320562861361
360,83.390123,72.58320562861361
361,83.580913,72.28098861829147
362,83.865641,73.17451239665691
363,84.182671,72.58320562861361
364,84.423604,72.58320562861361
365,84.68399,73.5298044867212
366,84.96158,73.4809465049578
367,85.195641,73.4809465049578
368,85.416492,72.88716351184293
369,85.685636,72.58320562861361
370,85.893536,73.22269031288529
371,86.152463,72.28098861829147
372,86.380013,72.28098861829147
373,86.572701,73.83869389183833
374,86.854392,74.44022862791932
375,87.048016,72.58320562861361
376,87.294842,72.88716351184293
377,87.498349,73.17451239665691
378,87.69655,73.17451239665691
379,87.882334,71.35291022222174
380,88.132791,72.28098861829147
381,88.441645,73.83869389183833
382,88.673257,73.81920671060247
383,88.911946,72.58320562861361
384,89.174393,72.88716351184293
385,89.391329,72.88716351184293
386,89.649497,73.5298044867212
387,89.905937,71.65031889063766
388,90.108607,73.5298044867212
389,90.306434,71.35291022222174
390,90.520005,73.81920671060247
391,90.818206,73.5298044867212
392,91.013825,73.22269031288529
393,91.20371,72.58320562861361
394,91.393842,72.88716351184293
395,91.592081,73.17451239665691
396,91.780491,74.44022862791932
397,92.033312,72.28098861829147
398,92.295718,72.88716351184293
399,92.544875,72.58320562861361
400,92.871699,73.5298044867212
401,93.163146,72.58320562861361
402,93.390306,73.22269031288529
403,93.625948,72.88716351184293
404,93.879042,72.58320562861361
405,94.080523,72.58320562861361
406,94.353624,73.4809465049578
407,94.578365,73.17451239665691
408,94.774921,72.58320562861361
409,94.976615,73.17451239665691
410,95.168911,73.4809465049578
411,95.405082,72.88716351184293
412,95.60169,73.5298044867212
413,95.79461,72.58320562861361
414,95.979091,72.88716351184293
415,96.202058,71.65031889063766
416,96.499755,73.19287528009735
417,96.754696,71.65031889063766
418,97.003613,74.44022862791932
419,97.258815,72.28098861829147
420,97.46627,72.58320562861361
421,97.732473,72.88716351184293
422,97.943111,73.4809465049578
423,98.172687,73.19287528009735
424,98.38665,72.88716351184293
425,98.609749,72.88716351184293
426,98.844813,71.94943480598789
427,99.04673,73.83869389183833
428,99.237312,72.8698333434686
429,99.429765,74.44022862791932
430,99.624288,71.65031889063766
431,99.807375,71.65031889063766
432,100.076467,71.35291022222174
433,100.307057,71.65031889063766
434,100.544949,72.58320562861361
435,100.805058,72.88716351184293
436,101.03656,72.88716351184293
437,101.32764,73.78914878649383
438,101.5603,72.58320562861361
439,101.804247,72.88716351184293
440,102.000687,72.88716351184293
441,102.223222,71.65031889063766
442,102.495665,72.58320562861361
443,102.696359,73.78914878649383
444,102.891992,72.88716351184293
445,103.148641,72.88716351184293
446,103.349139,72.23402579811808
447,103.583322,73.17451239665691
448,103.832297,73.5298044867212
449,104.089658,71.94943480598789
450,104.344803,72.88716351184293
451,104.642609,71.94943480598789
452,104.90296,73.4809465049578
453,105.124737,71.65031889063766
454,105.344886,73.19287528009735
455,105.610882,73.19287528009735
456,105.855803,72.53557849293601
457,106.095585,73.4809465049578
458,106.313389,73.78914878649383
459,106.529005,72.88716351184293
460,106.720193,73.19287528009735
461,106.960171,72.53557849293601
462,107.170095,71.94943480598789
463,107.365599,72.25027069050587
464,107.565577,71.65031889063766
465,107.745366,72.8698333434686
466,107.957057,72.88716351184293
467,108.259273,73.17451239665691
468,108.510889,73.4809465049578
469,108.763118,72.88716351184293
470,109.010052,73.4809465049578
471,109.223507,72.88716351184293
472,109.471559,73.4809465049578
473,109.718785,72.88716351184293
474,109.927539,72.53557849293601
475,110.14511,73.19287528009735
476,110.365337,71.94943480598789
477,110.607485,73.19287528009735
478,110.813089,73.19287528009735
479,111.012926,73.19287528009735
480,111.207121,73.4809465049578
481,111.400752,72.25027069050587
482,111.601755,72.58320562861361
483,111.87191,72.88716351184293
484,112.123386,73.78914878649383
485,112.374086,72.25027069050587
486,112.624161,71.65031889063766
487,112.929123,71.65031889063766
488,113.150995,72.88716351184293
489,113.417883,73.83869389183833
490,113.670552,73.17451239665691
491,113.87783,71.94943480598789
492,114.144766,71.94943480598789
493,114.395593,73.19287528009735
494,114.596244,71.65031889063766
495,114.79998,73.19287528009735
496,115.002394,72.58320562861361
497,115.232759,72.88716351184293
498,115.446413,73.19287528009735
499,115.628333,72.88716351184293
500,115.85838,73.17451239665691
501,116.112336,72.25027069050587
502,116.4019,72.88716351184293
503,116.63266,73.78914878649383
504,116.884531,71.94943480598789
505,117.134143,73.83869389183833
506,117.343796,73.19287528009735
507,117.616392,72.88716351184293
508,117.825321,72.58320562861361
509,118.03753,72.88716351184293
510,118.246666,73.19287528009735
511,118.456761,74.75343754439919
512,118.687464,72.58320562861361
513,118.894955,73.83869389183833
514,119.093462,73.17451239665691
515,119.289405,73.78914878649383
516,119.490435,72.58320562861361
517,119.761978,72.58320562861361
518,119.997749,73.19287528009735
519,120.24912,72.58320562861361
520,120.495516,73.83869389183833
521,120.728444,73.19287528009735
522,120.991722,73.5003540629306
523,121.2182,71.94943480598789
524,121.434555,73.19287528009735
525,121.630277,72.88716351184293
526,121.842109,73.78914878649383
527,122.113824,73.4809465049578
528,122.346291,73.19287528009735
529,122.546326,72.55283938087742
530,122.748605,72.25027069050587
531,122.939164,72.25027069050587
532,123.168437,71.94943480598789
533,123.368465,71.65031889063766
534,123.608399,73.19287528009735
535,123.926571,73.19287528009735
536,124.224328,73.5003540629306
537,124.476345,71.94943480598789
538,124.75679,71.94943480598789
539,124.970641,73.19287528009735
540,125.184525,71.94943480598789
541,125.5038,72.88716351184293
542,125.716878,73.19287528009735
543,125.935371,71.94943480598789
544,126.161615,72.25027069050587
545,126.361808,71.94943480598789
546,126.591241,71.94943480598789
547,126.789024,72.88716351184293
548,126.977181,71.94943480598789
549,127.177526,72.88716351184293
550,127.396252,73.19287528009735
551,127.664108,72.88716351184293
552,127.91151,71.94943480598789
553,128.16116,73.19287528009735
554,128.433336,71.94943480598789
555,128.735111,71.94943480598789
556,128.960525,73.4809465049578
557,129.18046,71.94943480598789
558,129.370728,73.19287528009735
559,129.587357,72.53557849293601
560,129.871643,72.88716351184293
561,130.072694,73.19287528009735
562,130.276705,73.19287528009735
563,130.475062,73.19287528009735
564,130.670963,72.88716351184293
565,130.860594,73.5003540629306
566,131.087593,73.19287528009735
567,131.291287,73.17451239665691
568,131.514172,71.65031889063766
569,131.758767,73.5003540629306
570,132.006084,73.17451239665691
571,132.287368,71.94943480598789
572,132.543888,71.94943480598789
573,132.755728,72.88716351184293
574,132.966198,73.78914878649383
575,133.216217,71.65031889063766
576,133.485451,71.65031889063766
577,133.720718,72.88716351184293
578,133.946574,73.19287528009735
579,134.184851,74.46185175365906
580,134.424868,72.53557849293601
581,134.671975,72.53557849293601
582,134.867707,71.02527421078285
583,135.057602,74.46185175365906
584,135.282169,71.93419425850233
585,135.534701,72.53557849293601
586,135.827938,73.5003540629306
587,136.067104,74.77614719178288
588,136.317689,71.94943480598789
589,136.536217,72.53557849293601
590,136.748516,71.94943480598789
591,137.026434,71.94943480598789
592,137.227474,72.88716351184293
593,137.453304,72.25027069050587
594,137.647918,73.19287528009735
595,137.869119,73.19287528009735
596,138.11127,73.19287528009735
597,138.314247,73.5003540629306
598,138.50264,73.19287528009735
599,138.693584,73.19287528009735
600,138.890878,71.94943480598789
601,139.081271,74.46185175365906
602,139.358881,73.78914878649383
603,139.607991,71.94943480598789
604,139.84847,73.5003540629306
605,140.097762,73.14389876706906
606,140.358553,72.85715382945509
607,140.62431,73.5003540629306
608,140.837193,73.80961310858248
609,141.047392,72.55283938087742
610,141.252997,71.02527421078285
611,141.469556,73.78914878649383
612,141.731886,75.70401896804427
613,141.931701,71.94943480598789
614,142.129263,72.25027069050587
615,142.322679,71.32132266711749
616,142.512165,73.80961310858248
617,142.701961,72.53557849293601
618,142.945167,73.5003540629306
619,143.183717,72.55283938087742
620,143.449093,72.55283938087742
621,143.698387,74.09913247777999
622,143.933821,73.14389876706906
623,144.227995,73.5003540629306
624,144.48853,72.55283938087742
625,144.699806,73.5003540629306
626,144.955487,73.14389876706906
627,145.159789,72.55283938087742
628,145.42846,73.5003540629306
629,145.644967,73.5003540629306
