,time (s),surface tension (mN/m)
0,0.103594,43.75680401278554
1,0.351627,43.549622437981085
2,0.594477,42.90095375328046
3,0.827677,43.549622437981085
4,1.122328,42.90095375328046
5,1.352167,43.10434915312609
6,1.571807,42.90095375328046
7,1.80869,42.90095375328046
8,2.032791,42.90095375328046
9,2.320115,42.90095375328046
10,2.579691,42.90095375328046
11,2.810518,42.90095375328046
12,3.047067,43.45838749523641
13,3.285458,43.549622437981085
14,3.581273,43.10434915312609
15,3.808792,43.549622437981085
16,4.046868,43.49358898536438
17,4.286459,42.90095375328046
18,4.520692,43.10434915312609
19,4.845242,42.66367014335044
20,5.089069,43.549622437981085
21,5.33306,42.90095375328046
22,5.560364,43.25332150363916
23,5.795091,42.90095375328046
24,6.09006,42.90095375328046
25,6.334206,42.90095375328046
26,6.569534,43.549622437981085
27,6.815135,42.90095375328046
28,7.05061,43.10434915312609
29,7.370445,43.69978438736678
30,7.616788,43.45838749523641
31,7.844679,43.309064479480625
32,8.076678,42.90095375328046
33,8.321282,43.25332150363916
34,8.631309,43.45838749523641
35,8.887197,42.90095375328046
36,9.120103,42.90095375328046
37,9.350807,43.45838749523641
38,9.591009,43.34377947998781
39,9.910504,43.69978438736678
40,10.173407,43.45838749523641
41,10.496763,42.69886718719646
42,10.719795,43.10434915312609
43,11.026879,43.10434915312609
44,11.324985,43.45838749523641
45,11.560016,43.25332150363916
46,11.807039,43.10434915312609
47,12.124387,43.45838749523641
48,12.361694,43.10434915312609
49,12.598557,42.90095375328046
50,12.829215,43.10434915312609
51,13.055963,42.90095375328046
52,13.364241,43.549622437981085
53,13.609317,43.45838749523641
54,13.858953,42.46269155478985
55,14.102393,42.90095375328046
56,14.354454,43.25332150363916
57,14.669018,43.45838749523641
58,14.909647,43.10434915312609
59,15.151686,43.45838749523641
60,15.397001,43.10434915312609
61,15.645221,43.25332150363916
62,15.962612,42.46269155478985
63,16.212757,43.45838749523641
64,16.464683,42.90095375328046
65,16.69095,42.46269155478985
66,16.922006,43.10434915312609
67,17.226746,42.1181680973009
68,17.467468,42.69886718719646
69,17.706054,42.90095375328046
70,17.930801,42.90095375328046
71,18.177265,42.90095375328046
72,18.473098,42.90095375328046
73,18.74195,43.04957509593303
74,18.981307,42.90095375328046
75,19.22341,42.90095375328046
76,19.460454,42.90095375328046
77,19.759737,42.90095375328046
78,19.997237,42.90095375328046
79,20.247478,42.69886718719646
80,20.466675,42.69886718719646
81,20.842401,42.69886718719646
82,21.08338,42.90095375328046
83,21.332616,43.34377947998781
84,21.572414,42.69886718719646
85,21.81149,42.90095375328046
86,22.106092,42.90095375328046
87,22.357816,42.90095375328046
88,22.603606,42.46269155478985
89,22.843145,42.46269155478985
90,23.084462,42.66367014335044
91,23.395914,42.90095375328046
92,23.629623,42.90095375328046
93,23.869063,43.10434915312609
94,24.129675,43.10434915312609
95,24.374645,43.10434915312609
96,24.707278,42.90095375328046
97,24.942484,43.139263870598135
98,25.177414,42.90095375328046
99,25.406569,42.352427505312114
100,25.633353,42.90095375328046
101,25.938665,42.02894220578649
102,26.171774,42.66367014335044
103,26.407709,42.46269155478985
104,26.660347,42.69886718719646
105,26.904432,42.90095375328046
106,27.202661,42.90095375328046
107,27.455954,42.26300355130789
108,27.711895,42.90095375328046
109,27.962465,42.69886718719646
110,28.200194,43.10434915312609
111,28.528697,42.90095375328046
112,28.785719,43.10434915312609
113,29.020234,42.90095375328046
114,29.252271,42.26300355130789
115,29.633116,43.10434915312609
116,29.914747,42.90095375328046
117,30.146783,42.69886718719646
118,30.384821,42.69886718719646
119,30.613244,42.69886718719646
120,30.944632,42.46269155478985
121,31.272705,42.26300355130789
122,31.507396,42.69886718719646
123,31.734413,42.26300355130789
124,32.056804,42.90095375328046
125,32.359356,42.90095375328046
126,32.587647,42.69886718719646
127,32.826176,42.69886718719646
128,33.151488,42.46269155478985
129,33.386802,42.90095375328046
130,33.630845,43.10434915312609
131,33.87108,43.10434915312609
132,34.121687,42.69886718719646
133,34.435157,42.61013148628154
134,34.696264,42.90095375328046
135,34.927567,42.90095375328046
136,35.166028,42.26300355130789
137,35.404436,42.46269155478985
138,35.736849,42.90095375328046
139,35.967898,42.90095375328046
140,36.205412,42.26300355130789
141,36.445831,42.26300355130789
142,36.704272,42.46269155478985
143,37.00605,42.26300355130789
144,37.2637,42.46269155478985
145,37.497803,43.10434915312609
146,37.726243,42.26300355130789
147,37.974347,42.69886718719646
148,38.27261,42.46269155478985
149,38.519547,42.26300355130789
150,38.745415,42.46269155478985
151,38.967183,43.34377947998781
152,39.210735,42.46269155478985
153,39.531494,42.46269155478985
154,39.772629,43.10434915312609
155,40.006854,42.26300355130789
156,40.252199,42.90095375328046
157,40.488204,43.10434915312609
158,40.821352,42.90095375328046
159,41.069966,42.90095375328046
160,41.29582,42.90095375328046
161,41.608417,42.90095375328046
162,41.926271,42.46269155478985
163,42.2169,42.46269155478985
164,42.466315,42.26300355130789
165,42.71558,42.46269155478985
166,43.015859,42.81145963074882
167,43.282476,42.90095375328046
168,43.511832,42.81145963074882
169,43.740457,42.90095375328046
170,43.96596,42.90095375328046
171,44.284871,42.90095375328046
172,44.532043,42.46269155478985
173,44.760701,42.352427505312114
174,45.057116,42.26300355130789
175,45.368695,42.26300355130789
176,45.643105,42.46269155478985
177,45.898809,42.26300355130789
178,46.138241,42.46269155478985
179,46.365349,42.46269155478985
180,46.671286,41.72330184154788
181,46.915568,42.46269155478985
182,47.163289,42.26300355130789
183,47.437322,42.46269155478985
184,47.766079,42.26300355130789
185,48.016681,42.81145963074882
186,48.24745,43.25332150363916
187,48.478149,42.90095375328046
188,48.706084,42.90095375328046
189,48.996582,42.90095375328046
190,49.251736,42.26300355130789
191,49.498917,42.46269155478985
192,49.731292,42.46269155478985
193,49.961142,42.064595322667394
194,50.281848,42.064595322667394
195,50.513465,42.81145963074882
196,50.752815,42.46269155478985
197,51.000714,42.26300355130789
198,51.243536,42.46269155478985
199,51.550213,42.26300355130789
200,51.861799,42.66367014335044
201,52.163627,42.81145963074882
202,52.402708,42.26300355130789
203,52.716301,42.26300355130789
204,52.951556,42.26300355130789
205,53.178546,42.064595322667394
206,53.405936,42.46269155478985
207,53.657938,42.46269155478985
208,53.970179,42.1181680973009
209,54.207235,42.81145963074882
210,54.449994,42.46269155478985
211,54.699241,42.02894220578649
212,54.939133,41.68793799825393
213,55.230376,42.46269155478985
214,55.484672,42.46269155478985
215,55.72997,42.46269155478985
216,55.963929,42.26300355130789
217,56.214956,42.26300355130789
218,56.524258,43.25332150363916
219,56.759796,43.25332150363916
220,56.999015,42.46269155478985
221,57.232646,42.66367014335044
222,57.470295,42.46269155478985
223,57.788043,42.90095375328046
224,58.019948,42.46269155478985
225,58.25374,42.02894220578649
226,58.507652,42.46269155478985
227,58.757856,42.66367014335044
228,59.08354,42.81145963074882
229,59.340929,42.81145963074882
230,59.585563,42.81145963074882
231,59.843427,42.46269155478985
232,60.16838,42.46269155478985
233,60.426711,43.014088960538345
234,60.675209,42.81145963074882
235,60.925686,42.46269155478985
236,61.25137,41.83162268584104
237,61.499338,42.26300355130789
238,61.762351,42.46269155478985
239,62.010979,42.46269155478985
240,62.4065,42.81145963074882
241,62.723179,42.02894220578649
242,62.972465,42.81145963074882
243,63.211887,42.46269155478985
244,63.523846,42.46269155478985
245,63.759429,42.02894220578649
246,63.994802,42.46269155478985
247,64.225866,42.61013148628154
248,64.452936,42.66367014335044
249,64.77741,42.02894220578649
250,65.014809,42.46269155478985
251,65.246381,42.46269155478985
252,65.482034,42.46269155478985
253,65.709623,42.46269155478985
254,66.014915,42.46269155478985
255,66.238918,42.46269155478985
256,66.479844,42.46269155478985
257,66.707115,42.02894220578649
258,66.929517,42.46269155478985
259,67.240097,42.66367014335044
260,67.470876,42.46269155478985
261,67.711972,42.66367014335044
262,67.948259,42.02894220578649
263,68.181049,42.37414767371564
264,68.490189,42.02894220578649
265,68.731425,42.02894220578649
266,68.975751,42.02894220578649
267,69.225054,41.83162268584104
268,69.470367,42.37414767371564
269,69.801913,42.46269155478985
270,70.033351,42.22753432422632
271,70.271274,41.83162268584104
272,70.561917,41.68793799825393
273,70.798472,42.81145963074882
274,71.112659,42.66367014335044
275,71.37169,42.66367014335044
276,71.605597,42.02894220578649
277,71.857039,42.22753432422632
278,72.098256,42.46269155478985
279,72.405742,42.66367014335044
280,72.684198,42.1181680973009
281,72.973584,42.46269155478985
282,73.204785,42.46269155478985
283,73.522736,42.02894220578649
284,73.788386,42.46269155478985
285,74.02174,41.83162268584104
286,74.251001,42.66367014335044
287,74.498884,41.83162268584104
288,74.803891,42.66367014335044
289,75.04072,42.61013148628154
290,75.267451,42.26300355130789
291,75.501135,42.66367014335044
292,75.736964,42.26300355130789
293,76.049798,42.26300355130789
294,76.314443,42.22753432422632
295,76.562683,42.02894220578649
296,76.795867,42.02894220578649
297,77.030091,42.02894220578649
298,77.349104,42.46269155478985
299,77.612749,41.83162268584104
300,77.851024,42.22753432422632
301,78.094096,42.22753432422632
302,78.340617,42.26300355130789
303,78.653156,42.02894220578649
304,78.885201,42.66367014335044
305,79.118496,42.37414767371564
306,79.361588,42.02894220578649
307,79.600173,42.02894220578649
308,79.973597,42.02894220578649
309,80.220995,42.37414767371564
310,80.44979,42.46269155478985
311,80.681587,42.66367014335044
312,80.920438,42.46269155478985
313,81.256947,42.02894220578649
314,81.559102,42.02894220578649
315,81.797834,42.02894220578649
316,82.038304,42.66367014335044
317,82.335735,42.02894220578649
318,82.583237,42.02894220578649
319,82.813372,41.83162268584104
320,83.087426,42.02894220578649
321,83.488938,42.02894220578649
322,83.746069,42.02894220578649
323,83.97676,42.02894220578649
324,84.227409,42.02894220578649
325,84.45604,42.02894220578649
326,84.76576,42.22753432422632
327,85.027898,42.02894220578649
328,85.274699,42.46269155478985
329,85.519936,41.83162268584104
330,85.751326,42.02894220578649
331,86.054996,42.22753432422632
332,86.297076,42.46269155478985
333,86.53372,42.46269155478985
334,86.778233,42.02894220578649
335,87.029449,42.46269155478985
336,87.329094,42.02894220578649
337,87.581108,41.83162268584104
338,87.820286,42.22753432422632
339,88.073631,42.02894220578649
340,88.321783,42.02894220578649
341,88.652729,41.83162268584104
342,88.893217,42.02894220578649
343,89.139449,42.86595023713587
344,89.385165,42.46269155478985
345,89.62981,42.46269155478985
346,89.966647,42.22753432422632
347,90.209262,42.46269155478985
348,90.45635,42.22753432422632
349,90.69949,42.02894220578649
350,90.952055,42.22753432422632
351,91.260762,42.22753432422632
352,91.493104,42.66367014335044
353,91.730056,41.83162268584104
354,91.96708,42.02894220578649
355,92.22902,42.22753432422632
356,92.522282,41.99339226782785
357,92.76249,41.79589122491648
358,93.021099,42.02894220578649
359,93.263166,41.83162268584104
360,93.619689,42.22753432422632
361,93.910583,41.79589122491648
362,94.188849,42.42740979151563
363,94.41708,42.22753432422632
364,94.723852,41.83162268584104
365,94.982707,42.22753432422632
366,95.23438,42.02894220578649
367,95.486462,42.02894220578649
368,95.716035,42.22753432422632
369,96.01878,41.59965563534587
370,96.266854,41.79589122491648
371,96.509614,41.83162268584104
372,96.7483,42.02894220578649
373,96.984416,42.02894220578649
374,97.289239,41.83162268584104
375,97.523135,42.66367014335044
376,97.762461,42.02894220578649
377,98.018389,42.02894220578649
378,98.249337,42.22753432422632
379,98.565555,41.59965563534587
380,98.812457,41.59965563534587
381,99.054606,41.40467491579044
382,99.35102,42.02894220578649
383,99.683945,42.02894220578649
384,99.932132,41.59965563534587
385,100.164042,42.22753432422632
386,100.39876,42.42740979151563
387,100.771604,42.02894220578649
388,101.027482,42.02894220578649
389,101.267259,42.02894220578649
390,101.519871,41.59965563534587
391,101.751532,42.02894220578649
392,102.052151,42.02894220578649
393,102.312781,42.42740979151563
394,102.54569,42.02894220578649
395,102.778332,42.02894220578649
396,103.014872,42.22753432422632
397,103.32853,41.79589122491648
398,103.59028,42.02894220578649
399,103.837843,42.02894220578649
400,104.097877,42.22753432422632
401,104.416933,41.59965563534587
402,104.682454,42.22753432422632
403,104.922744,42.42740979151563
404,105.161637,41.59965563534587
405,105.406174,42.42740979151563
406,105.69676,41.40467491579044
407,105.970094,42.02894220578649
408,106.223354,41.79589122491648
409,106.470849,42.02894220578649
410,106.786049,42.37414767371564
411,107.034374,41.79589122491648
412,107.262079,42.42740979151563
413,107.492957,41.79589122491648
414,107.729776,41.59965563534587
415,108.029625,42.02894220578649
416,108.316225,41.79589122491648
417,108.561541,42.22753432422632
418,108.798073,42.02894220578649
419,109.12456,42.22753432422632
420,109.396436,42.02894220578649
421,109.621692,42.02894220578649
422,109.860231,42.37414767371564
423,110.086653,42.22753432422632
424,110.41518,42.22753432422632
425,110.664696,41.59965563534587
426,110.900347,41.79589122491648
427,111.143462,41.79589122491648
428,111.371559,41.79589122491648
429,111.680045,42.02894220578649
430,111.936963,41.59965563534587
431,112.177231,41.59965563534587
432,112.406113,41.79589122491648
433,112.637098,41.59965563534587
434,112.958184,42.22753432422632
435,113.215402,41.79589122491648
436,113.442429,41.59965563534587
437,113.67728,42.22753432422632
438,113.90602,42.02894220578649
439,114.223072,42.22753432422632
440,114.535096,41.79589122491648
441,114.80853,41.79589122491648
442,115.037502,42.42740979151563
443,115.338029,42.42740979151563
444,115.58111,41.59965563534587
445,115.828623,41.59965563534587
446,116.072494,41.79589122491648
447,116.327406,41.59965563534587
448,116.633364,41.79589122491648
449,116.883135,42.02894220578649
450,117.12709,41.40467491579044
451,117.369067,41.59965563534587
452,117.620268,41.59965563534587
453,117.931694,42.02894220578649
454,118.188225,42.22753432422632
455,118.41743,42.02894220578649
456,118.646412,42.02894220578649
457,118.894596,41.59965563534587
458,119.198298,41.59965563534587
459,119.448431,41.79589122491648
460,119.692377,42.42740979151563
461,119.942359,42.02894220578649
462,120.158074,42.42740979151563
463,120.472871,42.02894220578649
464,120.772773,42.02894220578649
465,121.009359,41.79589122491648
466,121.233432,41.79589122491648
467,121.544533,41.59965563534587
468,121.782067,42.42740979151563
469,122.005158,41.79589122491648
470,122.233157,42.57437093206942
471,122.468897,41.9413351503567
472,122.761472,42.42740979151563
473,123.010856,41.59965563534587
474,123.259972,41.79589122491648
475,123.48728,42.22753432422632
476,123.7261,41.79589122491648
477,124.037538,42.22753432422632
478,124.273763,41.79589122491648
479,124.520874,42.22753432422632
480,124.765265,41.45677788974175
481,125.161696,41.79589122491648
482,125.416498,41.9413351503567
483,125.646787,42.13918252444928
484,125.884537,41.79589122491648
485,126.125114,41.884918828271616
486,126.417798,41.79589122491648
487,126.667317,41.45677788974175
488,126.899523,41.45677788974175
489,127.143263,42.42740979151563
490,127.386163,42.42740979151563
491,127.714114,41.59965563534587
492,127.990602,42.42740979151563
493,128.236736,41.45677788974175
494,128.465427,42.22753432422632
495,128.791267,41.9413351503567
496,129.020638,41.99339226782785
497,129.252005,42.22753432422632
498,129.484426,42.42740979151563
499,129.731034,41.99339226782785
500,130.036967,41.79589122491648
501,130.295135,41.9413351503567
502,130.551768,41.99339226782785
503,130.790377,42.33830574570625
504,131.017337,41.99339226782785
505,131.300668,42.13918252444928
506,131.552652,41.59965563534587
507,131.787574,41.59965563534587
508,132.030718,41.79589122491648
509,132.28207,41.99339226782785
510,132.598514,42.42740979151563
511,132.830861,41.563847402471005
512,133.065027,42.13918252444928
513,133.391584,42.33830574570625
514,133.711582,41.59965563534587
515,133.968069,41.59965563534587
516,134.265522,41.368690980012424
517,134.515505,41.79589122491648
518,134.816009,41.905232805921166
519,135.06633,41.99339226782785
520,135.373635,41.79589122491648
521,135.684005,41.59965563534587
522,135.999407,41.99339226782785
523,136.25705,41.45677788974175
524,136.499312,41.59965563534587
525,136.732997,41.99339226782785
526,136.981173,41.99339226782785
527,137.298846,41.6526764967342
528,137.550733,42.13918252444928
529,137.792645,41.59965563534587
530,138.03521,41.79589122491648
531,138.276345,41.79589122491648
532,138.579731,41.99339226782785
533,138.81389,41.79589122491648
534,139.042407,41.79589122491648
535,139.329596,41.99339226782785
536,139.574085,42.33830574570625
537,139.896792,41.99339226782785
538,140.13825,41.99339226782785
539,140.365668,41.59965563534587
540,140.615349,41.59965563534587
541,140.846699,41.99339226782785
542,141.158168,41.79589122491648
543,141.40661,42.33830574570625
544,141.653013,41.99339226782785
545,141.887839,41.17478237227646
546,142.14387,41.99339226782785
547,142.434641,41.262134468762575
548,142.721556,42.33830574570625
549,142.955475,41.45677788974175
550,143.179698,41.79589122491648
551,143.4294,41.17478237227646
552,143.746014,41.99339226782785
553,143.973796,41.59965563534587
554,144.205739,41.79589122491648
555,144.454775,41.708473462698976
556,144.705812,42.13918252444928
557,145.008009,41.45677788974175
558,145.265917,42.22753432422632
559,145.499619,42.22753432422632
560,145.820487,41.79589122491648
561,146.182796,41.99339226782785
562,146.425165,41.59965563534587
563,146.670067,41.99339226782785
564,146.906513,41.262134468762575
565,147.150299,41.368690980012424
566,147.472454,42.42740979151563
567,147.77725,41.79589122491648
568,148.02528,41.45677788974175
569,148.252492,41.368690980012424
570,148.578486,41.99339226782785
571,148.841689,41.99339226782785
572,149.087183,41.99339226782785
573,149.342599,41.6526764967342
574,149.568229,41.79589122491648
575,149.890909,41.99339226782785
576,150.1542,41.563847402471005
577,150.406421,41.79589122491648
578,150.636469,41.17478237227646
579,150.887379,41.45677788974175
580,151.20241,41.6526764967342
581,151.456929,41.99339226782785
582,151.680962,42.33830574570625
583,151.934521,41.99339226782785
584,152.184094,41.45677788974175
585,152.489279,41.99339226782785
586,152.742878,41.79589122491648
587,152.976854,41.563847402471005
588,153.224822,41.59965563534587
589,153.463338,41.368690980012424
590,153.777353,41.79589122491648
591,154.028626,41.563847402471005
592,154.273313,41.368690980012424
593,154.521225,41.79589122491648
594,154.761104,41.368690980012424
595,155.090506,41.17478237227646
596,155.334745,41.368690980012424
597,155.572228,41.368690980012424
598,155.802344,41.368690980012424
599,156.041581,42.33830574570625
600,156.431948,41.368690980012424
601,156.691971,41.368690980012424
602,156.921403,41.99339226782785
603,157.156081,41.99339226782785
604,157.391507,41.6526764967342
605,157.71062,41.99339226782785
606,157.97064,41.708473462698976
607,158.198042,41.368690980012424
608,158.423339,41.708473462698976
609,158.654892,41.79589122491648
610,158.977283,41.99339226782785
611,159.221283,41.45677788974175
612,159.454604,42.33830574570625
613,159.701589,41.59965563534587
614,159.929159,41.563847402471005
615,160.255878,41.99339226782785
616,160.496139,42.33830574570625
617,160.749403,41.79589122491648
618,160.972719,41.59965563534587
619,161.227343,41.79589122491648
620,161.520486,41.368690980012424
621,161.788772,41.79589122491648
