,time (s),surface tension (mN/m)
0,0.0,41.59897447485268
1,0.247409,39.00636659625452
2,0.48115,47.01233124458377
3,0.727515,46.29437963884442
4,0.955438,41.202725997206706
5,1.256328,46.0676231263942
6,1.510994,44.4598419882938
7,1.73268,41.665917975107334
8,1.981974,42.50535208734403
9,2.210703,42.30191915415549
10,2.513102,43.36465812754364
11,2.754806,44.03040164091887
12,2.974316,44.03040164091887
13,3.205394,40.84580242530052
14,3.450285,42.916251443858016
15,3.821668,39.8207932125592
16,4.066955,39.8207932125592
17,4.298941,45.11483537045111
18,4.550823,42.67752481172
19,4.916145,44.925656614503225
20,5.165687,40.61796187421057
21,5.410557,42.50535208734403
22,5.633464,41.865595748368456
23,5.885013,42.30191915415549
24,6.197694,41.665917975107334
25,6.4315,43.36465812754364
26,6.6597,42.472537124955565
27,6.913612,44.24440794924164
28,7.136301,40.61796187421057
29,7.430056,42.916251443858016
30,7.692354,44.24440794924164
31,7.935949,44.24440794924164
32,8.209323,42.916251443858016
33,8.519479,42.06658401436899
34,8.764738,43.15601766596544
35,8.995661,41.467539563384534
36,9.217978,40.61796187421057
37,9.45378,43.57468200732184
38,9.775862,41.63239246794279
39,10.010948,42.26889401914302
40,10.551425,41.63239246794279
41,10.876411,40.81161659302121
42,11.117633,42.916251443858016
43,11.336774,41.23653523376483
44,11.569168,43.36465812754364
45,11.794687,41.23653523376483
46,12.107389,41.865595748368456
47,12.340821,41.865595748368456
48,12.579134,41.865595748368456
49,12.823077,41.665917975107334
50,13.074729,42.50535208734403
51,13.360416,41.04053371269079
52,13.61674,40.81161659302121
53,13.853778,43.36465812754364
54,14.092788,41.43381783339973
55,14.34092,43.36465812754364
56,14.639541,42.06658401436899
57,14.867642,41.865595748368456
58,15.097922,42.916251443858016
59,15.327162,41.23653523376483
60,15.557778,41.865595748368456
61,15.856815,41.665917975107334
62,16.105751,42.06658401436899
63,16.350698,41.865595748368456
64,16.567623,41.865595748368456
65,16.806325,42.71012566918861
66,17.106587,41.23653523376483
67,17.356377,40.425559541286084
68,17.598678,40.81161659302121
69,17.835109,42.71012566918861
70,18.081157,41.43381783339973
71,18.387561,42.06658401436899
72,18.637903,41.23653523376483
73,18.886816,41.865595748368456
74,19.129022,41.23653523376483
75,19.355494,41.665917975107334
76,19.667578,41.865595748368456
77,19.92101,41.23653523376483
78,20.155655,41.23653523376483
79,20.399793,41.865595748368456
80,20.641405,42.06658401436899
81,21.103959,41.865595748368456
82,21.361814,41.23653523376483
83,21.610764,41.865595748368456
84,21.85145,41.865595748368456
85,22.095104,41.865595748368456
86,22.399515,42.06658401436899
87,22.660562,42.06658401436899
88,22.887637,41.865595748368456
89,23.132394,41.865595748368456
90,23.390255,41.43381783339973
91,23.686731,41.63239246794279
92,23.924172,42.06658401436899
93,24.150209,41.43381783339973
94,24.389966,42.06658401436899
95,24.659767,41.23653523376483
96,24.963903,40.61796187421057
97,25.216734,42.71012566918861
98,25.460392,41.23653523376483
99,25.715235,41.23653523376483
100,25.958783,41.865595748368456
101,26.273528,42.06658401436899
102,26.523851,40.425559541286084
103,26.748846,42.06658401436899
104,26.998029,41.43381783339973
105,27.227244,42.50535208734403
106,27.539718,42.71012566918861
107,27.781512,41.04053371269079
108,28.027736,41.865595748368456
109,28.253648,41.23653523376483
110,28.504874,41.865595748368456
111,28.802769,41.43381783339973
112,29.09453,42.06658401436899
113,29.33761,41.63239246794279
114,29.564298,41.43381783339973
115,29.800365,40.61796187421057
116,30.11442,40.61796187421057
117,30.359837,42.06658401436899
118,30.588159,41.865595748368456
119,30.829047,41.23653523376483
120,31.076759,40.425559541286084
121,31.470651,42.06658401436899
122,31.71856,41.23653523376483
123,31.95397,41.23653523376483
124,32.202333,41.23653523376483
125,32.447709,41.865595748368456
126,32.750803,41.865595748368456
127,33.00067,40.81161659302121
128,33.229378,41.43381783339973
129,33.473238,41.43381783339973
130,33.707616,41.865595748368456
131,34.017026,41.23653523376483
132,34.28981,41.04053371269079
133,34.542911,41.23653523376483
134,34.786006,42.06658401436899
135,35.125842,41.23653523376483
136,35.370146,41.43381783339973
137,35.630413,41.23653523376483
138,35.857903,42.06658401436899
139,36.090721,41.76999347678894
140,36.38928,41.865595748368456
141,36.636069,41.23653523376483
142,36.867021,41.43381783339973
143,37.117399,41.865595748368456
144,37.355769,41.23653523376483
145,37.636866,40.81161659302121
146,37.890042,41.23653523376483
147,38.146979,41.665917975107334
148,38.3804,41.43381783339973
149,38.613997,41.23653523376483
150,38.902496,41.04053371269079
151,39.138165,41.43381783339973
152,39.368427,41.43381783339973
153,39.590218,41.23653523376483
154,39.828245,40.61796187421057
155,40.130024,41.43381783339973
156,40.367872,41.43381783339973
157,40.594927,41.006534372563834
158,40.822329,40.81161659302121
159,41.063844,41.43381783339973
160,41.366629,41.43381783339973
161,41.623001,41.006534372563834
162,41.928815,40.81161659302121
163,42.159889,40.61796187421057
164,42.460544,40.81161659302121
165,42.721647,40.61796187421057
166,42.954318,41.23653523376483
167,43.200451,41.43381783339973
168,43.459601,41.3392432272315
169,43.83176,41.23653523376483
170,44.086682,40.0096716260465
171,44.326577,40.81161659302121
172,44.557482,40.81161659302121
173,44.787558,41.23653523376483
174,45.095291,41.23653523376483
175,45.340859,41.23653523376483
176,45.568557,41.04053371269079
177,45.814301,41.43381783339973
178,46.046711,41.23653523376483
179,46.376395,40.81161659302121
180,46.626581,40.61796187421057
181,46.854819,41.23653523376483
182,47.098733,40.61796187421057
183,47.359823,41.04053371269079
184,47.658528,41.43381783339973
185,47.9212,41.43381783339973
186,48.151752,41.43381783339973
187,48.383259,41.006534372563834
188,48.655704,41.43381783339973
189,48.936351,40.81161659302121
190,49.195359,41.43381783339973
191,49.449904,41.23653523376483
192,49.703838,40.81161659302121
193,49.99622,41.23653523376483
194,50.261412,40.81161659302121
195,50.498359,40.61796187421057
196,50.740922,41.23653523376483
197,50.98823,40.81161659302121
198,51.295302,40.81161659302121
199,51.536492,40.81161659302121
200,51.785434,41.006534372563834
201,52.081798,40.81161659302121
202,52.41935,40.61796187421057
203,52.664375,40.61796187421057
204,52.901415,40.61796187421057
205,53.147174,40.61796187421057
206,53.368637,40.81161659302121
207,53.696995,41.23653523376483
208,53.938399,40.61796187421057
209,54.172667,41.23653523376483
210,54.417019,40.81161659302121
211,54.647787,40.81161659302121
212,54.964439,40.81161659302121
213,55.204613,40.81161659302121
214,55.444407,40.61796187421057
215,55.696433,41.006534372563834
216,55.921012,41.006534372563834
217,56.231425,40.61796187421057
218,56.466116,41.63239246794279
219,56.712972,40.19977443462565
220,56.954935,40.81161659302121
221,57.196918,40.81161659302121
222,57.513503,41.23653523376483
223,57.746515,40.61796187421057
224,57.995461,40.81161659302121
225,58.229995,40.81161659302121
226,58.472107,40.391112039572405
227,58.764091,40.81161659302121
228,59.010783,40.58369494849026
229,59.260416,41.006534372563834
230,59.494485,40.391112039572405
231,59.729486,40.391112039572405
232,60.042949,40.391112039572405
233,60.304388,40.81161659302121
234,60.53509,41.006534372563834
235,60.768284,40.81161659302121
236,61.003926,40.81161659302121
237,61.293043,41.006534372563834
238,61.53737,41.006534372563834
239,61.792714,40.391112039572405
240,62.017329,40.81161659302121
241,62.266433,40.81161659302121
242,62.626774,40.391112039572405
243,62.891063,41.006534372563834
244,63.148335,41.006534372563834
245,63.388888,40.391112039572405
246,63.703433,40.81161659302121
247,63.947663,40.58369494849026
248,64.178082,40.391112039572405
249,64.422476,40.391112039572405
250,64.650684,41.43381783339973
251,64.947499,40.81161659302121
252,65.196421,40.81161659302121
253,65.43157,40.81161659302121
254,65.67624,41.006534372563834
255,65.923252,40.19977443462565
256,66.2254,40.81161659302121
257,66.457415,40.391112039572405
258,66.700388,40.19977443462565
259,66.949153,40.391112039572405
260,67.186672,40.391112039572405
261,67.494655,40.391112039572405
262,67.744918,40.19977443462565
263,67.987975,40.19977443462565
264,68.239798,41.43381783339973
265,68.462685,40.19977443462565
266,68.760133,40.391112039572405
267,68.998825,41.006534372563834
268,69.225344,40.81161659302121
269,69.469061,40.19977443462565
270,69.709577,40.391112039572405
271,69.995367,40.58369494849026
272,70.238074,40.81161659302121
273,70.468242,40.391112039572405
274,70.697934,40.19977443462565
275,70.934132,41.006534372563834
276,71.233287,40.81161659302121
277,71.47625,40.61796187421057
278,71.715636,40.391112039572405
279,71.979242,40.19977443462565
280,72.212168,40.61796187421057
281,72.520811,40.19977443462565
282,72.772908,40.391112039572405
283,73.051225,40.391112039572405
284,73.33635,40.81161659302121
285,73.642497,40.391112039572405
286,73.891639,40.61796187421057
287,74.128657,41.006534372563834
288,74.364344,40.391112039572405
289,74.615928,40.19977443462565
290,74.952706,40.81161659302121
291,75.198348,40.391112039572405
292,75.451259,40.81161659302121
293,75.679787,41.006534372563834
294,75.906415,40.391112039572405
295,76.215119,40.391112039572405
296,76.455121,40.19977443462565
297,76.678793,40.81161659302121
298,76.929842,40.391112039572405
299,77.188488,40.391112039572405
300,77.512215,40.19977443462565
301,77.763373,40.81161659302121
302,77.998713,40.81161659302121
303,78.250686,40.391112039572405
304,78.483463,40.391112039572405
305,78.790333,40.19977443462565
306,79.01956,40.19977443462565
307,79.248402,40.391112039572405
308,79.483146,39.78592238004816
309,79.711658,40.391112039572405
310,80.007287,40.81161659302121
311,80.24998,40.19977443462565
312,80.489382,40.391112039572405
313,80.728787,40.81161659302121
314,80.984437,39.974972165291035
315,81.283315,41.006534372563834
316,81.509953,40.391112039572405
317,81.7327,40.81161659302121
318,81.966019,40.391112039572405
319,82.205307,40.19977443462565
320,82.523387,40.19977443462565
321,82.751616,40.19977443462565
322,82.985228,40.58369494849026
323,83.225234,40.391112039572405
324,83.509645,40.391112039572405
325,83.868364,40.391112039572405
326,84.116135,39.78592238004816
327,84.347283,40.391112039572405
328,84.594251,40.391112039572405
329,84.824652,40.19977443462565
330,85.132396,40.58369494849026
331,85.370598,40.391112039572405
332,85.595027,41.006534372563834
333,85.843965,40.77753377659302
334,86.080321,40.391112039572405
335,86.410819,39.78592238004816
336,86.656873,40.391112039572405
337,86.912641,40.391112039572405
338,87.145879,40.391112039572405
339,87.369159,41.006534372563834
340,87.661861,40.19977443462565
341,87.917947,40.58369494849026
342,88.166312,40.165249754798836
343,88.417677,39.59809005596859
344,88.736776,40.391112039572405
345,88.976795,40.391112039572405
346,89.209289,40.165249754798836
347,89.436853,39.78592238004816
348,89.681681,39.974972165291035
349,90.051492,39.974972165291035
350,90.287025,40.391112039572405
351,90.537872,40.58369494849026
352,90.765772,39.78592238004816
353,91.121975,40.391112039572405
354,91.383674,40.391112039572405
355,91.628127,40.391112039572405
356,91.867312,40.19977443462565
357,92.10174,40.19977443462565
358,92.405352,40.391112039572405
359,92.663025,40.19977443462565
360,92.922995,40.391112039572405
361,93.177763,40.58369494849026
362,93.488158,41.006534372563834
363,93.710246,40.391112039572405
364,94.016854,40.19977443462565
365,94.313625,39.78592238004816
366,94.627722,39.78592238004816
367,94.86886,40.391112039572405
368,95.098834,40.165249754798836
369,95.347295,40.391112039572405
370,95.579062,40.58369494849026
371,95.909484,40.391112039572405
372,96.16711,39.974972165291035
373,96.407411,39.78592238004816
374,96.6474,41.006534372563834
375,96.875361,40.391112039572405
376,97.1701,40.391112039572405
377,97.435974,40.391112039572405
378,97.66549,40.391112039572405
379,97.896675,39.78592238004816
380,98.125836,40.391112039572405
381,98.45164,39.78592238004816
382,98.695343,40.391112039572405
383,98.967849,39.974972165291035
384,99.231481,39.974972165291035
385,99.542451,40.58369494849026
386,99.796662,40.391112039572405
387,100.025471,39.78592238004816
388,100.261131,40.58369494849026
389,100.492438,40.58369494849026
390,100.791727,39.974972165291035
391,101.05167,40.58369494849026
392,101.298402,39.974972165291035
393,101.551203,39.37635728800145
394,101.87791,39.75114958789954
395,102.135663,40.391112039572405
396,102.385875,39.37635728800145
397,102.643891,40.35676559740638
398,102.96826,39.974972165291035
399,103.19181,40.58369494849026
400,103.413538,39.974972165291035
401,103.648614,39.78592238004816
402,103.889796,39.75114958789954
403,104.198824,40.77753377659302
404,104.487209,39.974972165291035
405,104.785502,40.58369494849026
406,105.03902,40.165249754798836
407,105.350446,39.78592238004816
408,105.587139,39.974972165291035
409,105.808814,40.19977443462565
410,106.041296,39.974972165291035
411,106.269574,40.58369494849026
412,106.647855,40.165249754798836
413,106.896968,40.165249754798836
414,107.133977,39.563148159117254
415,107.381239,40.165249754798836
416,107.617043,40.165249754798836
417,107.912254,39.974972165291035
418,108.176538,40.165249754798836
419,108.40632,40.165249754798836
420,108.640665,39.974972165291035
421,108.878982,39.974972165291035
422,109.178598,40.165249754798836
423,109.426296,40.165249754798836
424,109.651305,39.974972165291035
425,109.889413,39.563148159117254
426,110.111175,39.974972165291035
427,110.418082,40.165249754798836
428,110.660044,39.974972165291035
429,110.902264,39.974972165291035
430,111.150517,40.165249754798836
431,111.404232,39.75114958789954
432,111.70686,39.974972165291035
433,111.949091,40.165249754798836
434,112.178291,40.58369494849026
435,112.409513,39.974972165291035
436,112.637154,39.974972165291035
437,112.92316,39.563148159117254
438,113.178806,39.974972165291035
439,113.416272,40.391112039572405
440,113.650709,39.974972165291035
441,113.891033,40.165249754798836
442,114.244648,39.974972165291035
443,114.499829,39.75114958789954
444,114.737327,39.75114958789954
445,115.068232,39.75114958789954
446,115.383071,40.58369494849026
447,115.631663,40.165249754798836
448,115.873233,40.165249754798836
449,116.107946,40.165249754798836
450,116.34705,40.165249754798836
451,116.661601,40.165249754798836
452,116.901772,39.563148159117254
453,117.133405,39.974972165291035
454,117.382837,39.563148159117254
455,117.613792,39.563148159117254
456,117.924223,39.563148159117254
457,118.163741,39.563148159117254
458,118.414189,39.94037185953125
459,118.653833,39.563148159117254
460,118.876024,40.165249754798836
461,119.177334,40.165249754798836
462,119.428839,39.563148159117254
463,119.657617,40.35676559740638
464,119.890562,40.165249754798836
465,120.124298,40.165249754798836
466,120.418338,39.563148159117254
467,120.677152,39.75114958789954
468,120.90861,39.75114958789954
469,121.135229,39.94037185953125
470,121.368706,40.35676559740638
471,121.697698,40.165249754798836
472,121.9329,39.37635728800145
473,122.159954,40.165249754798836
474,122.393172,40.165249754798836
475,122.626001,39.75114958789954
476,122.930374,39.563148159117254
477,123.185829,39.75114958789954
478,123.415546,39.563148159117254
479,123.643454,39.37635728800145
480,123.863239,39.974972165291035
481,124.175393,39.974972165291035
482,124.423191,40.165249754798836
483,124.665856,39.75114958789954
484,124.894503,39.37635728800145
485,125.272602,39.75114958789954
486,125.566425,39.974972165291035
487,125.792355,40.165249754798836
488,126.085683,39.75114958789954
489,126.370876,39.75114958789954
490,126.612897,39.563148159117254
491,126.842262,39.974972165291035
492,127.072442,39.75114958789954
493,127.305607,40.165249754798836
494,127.602925,39.75114958789954
495,127.866842,40.165249754798836
496,128.095951,40.165249754798836
497,128.319474,39.563148159117254
498,128.550151,39.75114958789954
499,128.849817,39.75114958789954
500,129.089736,39.563148159117254
501,129.336545,39.75114958789954
502,129.563642,39.75114958789954
503,129.805228,40.35676559740638
504,130.098425,40.58369494849026
505,130.322889,40.35676559740638
506,130.547692,39.75114958789954
507,130.825317,39.563148159117254
508,131.060647,39.341345838914314
509,131.360313,39.75114958789954
510,131.597081,39.75114958789954
511,131.830796,39.75114958789954
512,132.056579,39.563148159117254
513,132.287932,39.75114958789954
514,132.592432,39.563148159117254
515,132.84299,39.75114958789954
516,133.083231,39.563148159117254
517,133.330421,39.75114958789954
518,133.561962,40.165249754798836
519,133.869736,40.165249754798836
520,134.117785,39.563148159117254
521,134.361983,39.563148159117254
522,134.592689,40.35676559740638
523,134.815907,39.75114958789954
524,135.131727,39.94037185953125
525,135.380765,39.75114958789954
526,135.702858,39.563148159117254
527,135.967917,39.75114958789954
528,136.26793,40.165249754798836
529,136.509742,40.35676559740638
530,136.767213,39.341345838914314
531,137.00169,39.94037185953125
532,137.255718,39.563148159117254
533,137.561728,39.75114958789954
534,137.814445,39.75114958789954
535,138.056218,40.35676559740638
536,138.303259,40.165249754798836
537,138.540267,39.52830356326291
538,138.840052,39.341345838914314
539,139.077658,39.75114958789954
540,139.316747,39.341345838914314
541,139.556934,39.75114958789954
542,139.81382,40.35676559740638
543,140.118532,39.341345838914314
544,140.355464,39.341345838914314
545,140.584896,39.341345838914314
546,140.818095,39.563148159117254
547,141.039484,39.75114958789954
548,141.351027,40.165249754798836
549,141.58238,39.75114958789954
550,141.813688,39.75114958789954
551,142.043989,39.75114958789954
552,142.275462,40.165249754798836
553,142.581212,39.75114958789954
554,142.817494,39.94037185953125
555,143.042326,40.165249754798836
556,143.275406,39.94037185953125
557,143.501369,39.563148159117254
558,143.801706,40.35676559740638
559,144.027623,39.94037185953125
560,144.261252,39.75114958789954
561,144.517975,39.75114958789954
562,144.748075,39.75114958789954
563,145.104845,39.75114958789954
564,145.365685,39.94037185953125
565,145.612904,39.341345838914314
566,145.843588,39.75114958789954
567,146.255077,39.94037185953125
568,146.54233,39.75114958789954
569,146.785179,39.75114958789954
570,147.030685,39.341345838914314
571,147.34636,39.75114958789954
572,147.574977,39.341345838914314
573,147.806216,39.563148159117254
574,148.034313,39.75114958789954
575,148.275875,39.52830356326291
576,148.578407,39.52830356326291
577,148.822543,39.94037185953125
578,149.064031,39.75114958789954
579,149.300632,39.75114958789954
580,149.536186,39.75114958789954
581,149.84058,39.75114958789954
582,150.093581,39.563148159117254
583,150.327643,39.341345838914314
584,150.603142,39.341345838914314
585,150.835194,39.341345838914314
586,151.133831,39.563148159117254
587,151.37455,39.75114958789954
588,151.602706,39.341345838914314
589,151.832136,39.75114958789954
590,152.088699,39.52830356326291
591,152.396226,39.52830356326291
592,152.642732,39.563148159117254
593,152.882577,39.94037185953125
594,153.12001,39.94037185953125
595,153.378216,39.15559179907033
596,153.673896,39.94037185953125
597,153.933824,39.341345838914314
598,154.179202,39.341345838914314
599,154.406105,39.94037185953125
600,154.640246,39.75114958789954
601,154.999441,39.341345838914314
602,155.25093,39.15559179907033
603,155.49555,39.75114958789954
604,155.730269,39.341345838914314
605,155.968449,39.52830356326291
606,156.280076,39.75114958789954
607,156.574899,39.94037185953125
608,156.85516,39.75114958789954
609,157.100362,39.75114958789954
610,157.399847,39.341345838914314
611,157.642444,39.75114958789954
612,157.882574,39.75114958789954
613,158.122706,39.52830356326291
614,158.371884,39.75114958789954
615,158.723361,39.341345838914314
