,time (s),surface tension (mN/m)
0,0.114443,40.44765344861716
1,0.439421,40.64224067062165
2,0.694361,40.44765344861716
3,0.946687,40.44765344861716
4,1.286576,41.06854757979778
5,1.606945,40.44765344861716
6,1.855148,40.44765344861716
7,2.106483,40.0281577378893
8,2.41647,40.44765344861716
9,2.661655,40.775827791043135
10,2.921699,40.220398157281785
11,3.168661,40.0281577378893
12,3.509124,40.220398157281785
13,3.732029,40.44765344861716
14,3.9526,40.64224067062165
15,4.198273,40.44765344861716
16,4.424832,40.25433648671546
17,4.728017,40.64224067062165
18,4.987552,40.64224067062165
19,5.240925,40.44765344861716
20,5.481693,40.64224067062165
21,5.808502,40.0281577378893
22,6.065214,40.64224067062165
23,6.306648,40.25433648671546
24,6.54458,40.64224067062165
25,6.807096,40.64224067062165
26,7.144029,40.0281577378893
27,7.381537,40.44765344861716
28,7.641228,40.64224067062165
29,7.870167,39.83716960090574
30,8.117967,39.83716960090574
31,8.409871,39.83716960090574
32,8.664408,40.64224067062165
33,8.915993,40.220398157281785
34,9.165521,40.64224067062165
35,9.495686,40.44765344861716
36,9.748174,40.0281577378893
37,10.002715,40.44765344861716
38,10.366842,40.0281577378893
39,10.740607,40.44765344861716
40,11.004332,39.83716960090574
41,11.234862,40.25433648671546
42,11.486279,40.44765344861716
43,11.73167,40.25433648671546
44,12.0326,40.64224067062165
45,12.275832,40.64224067062165
46,12.528486,39.64742310383429
47,12.768469,39.83716960090574
48,13.006996,40.64224067062165
49,13.322505,40.0281577378893
50,13.581854,39.83716960090574
51,13.818946,40.0281577378893
52,14.067508,40.44765344861716
53,14.31934,40.25433648671546
54,14.632188,40.0281577378893
55,14.866365,40.0281577378893
56,15.094914,40.0281577378893
57,15.326263,40.160390747825836
58,15.571026,40.64224067062165
59,15.89831,40.160390747825836
60,16.168664,40.44765344861716
61,16.414384,40.0281577378893
62,16.642618,40.25433648671546
63,16.897656,39.83716960090574
64,17.218209,40.35292847794823
65,17.475963,39.83716960090574
66,17.750534,40.25433648671546
67,18.004806,40.0281577378893
68,18.340506,39.83716960090574
69,18.568191,40.58094234094885
70,18.814632,40.220398157281785
71,19.049484,40.25433648671546
72,19.311809,40.44765344861716
73,19.64886,40.44765344861716
74,19.901954,39.83716960090574
75,20.152929,40.0281577378893
76,20.3854,39.83716960090574
77,20.756202,40.44765344861716
78,21.051569,40.44765344861716
79,21.297133,39.83716960090574
80,21.54504,39.83716960090574
81,21.846541,40.160390747825836
82,22.09871,39.83716960090574
83,22.324202,39.83716960090574
84,22.568701,39.83716960090574
85,22.803552,39.83716960090574
86,23.110492,39.83716960090574
87,23.353766,40.0281577378893
88,23.657738,40.44765344861716
89,23.894894,40.0281577378893
90,24.198864,40.25433648671546
91,24.449881,40.0281577378893
92,24.678838,40.0281577378893
93,24.93112,40.44765344861716
94,25.161247,40.25433648671546
95,25.445014,39.83716960090574
96,25.710537,39.83716960090574
97,25.958061,40.44765344861716
98,26.198835,40.44765344861716
99,26.434813,40.25433648671546
100,26.739506,39.83716960090574
101,26.979915,40.35292847794823
102,27.227683,39.83716960090574
103,27.460116,40.25433648671546
104,27.697613,40.44765344861716
105,28.035001,40.0281577378893
106,28.301096,39.74422895419985
107,28.543722,39.83716960090574
108,28.793122,39.83716960090574
109,29.02663,39.64742310383429
110,29.332769,40.44765344861716
111,29.578316,39.83716960090574
112,29.813166,39.83716960090574
113,30.048468,40.44765344861716
114,30.284637,40.0281577378893
115,30.58097,40.0281577378893
116,30.842313,39.83716960090574
117,31.198895,39.83716960090574
118,31.474984,39.64742310383429
119,31.767933,40.25433648671546
120,32.026902,39.83716960090574
121,32.270707,40.160390747825836
122,32.511485,39.83716960090574
123,32.744684,40.44765344861716
124,33.065331,40.0281577378893
125,33.304699,39.83716960090574
126,33.541958,40.0281577378893
127,33.771045,40.0281577378893
128,34.023771,39.83716960090574
129,34.342985,39.83716960090574
130,34.581501,40.06227897185716
131,34.806296,39.64742310383429
132,35.040803,39.83716960090574
133,35.286787,39.83716960090574
134,35.573656,39.61304613842415
135,35.815845,39.93444884685275
136,36.052119,40.0281577378893
137,36.292651,39.64742310383429
138,36.534067,40.25433648671546
139,36.855268,39.83716960090574
140,37.104153,39.83716960090574
141,37.335676,40.06227897185716
142,37.584408,40.0281577378893
143,37.820957,40.0281577378893
144,38.13709,40.25433648671546
145,38.403951,40.0281577378893
146,38.632224,39.83716960090574
147,38.858399,39.2368923223045
148,39.089224,39.83716960090574
149,39.390566,39.83716960090574
150,39.655651,39.83716960090574
151,39.888288,40.25433648671546
152,40.112728,40.0281577378893
153,40.345616,39.83716960090574
154,40.652134,39.83716960090574
155,40.904724,39.64742310383429
156,41.158545,40.25433648671546
157,41.403517,40.44765344861716
158,41.748668,39.83716960090574
159,41.998699,39.83716960090574
160,42.23449,39.96910473173178
161,42.475855,39.83716960090574
162,42.705727,39.64742310383429
163,43.00428,40.0281577378893
164,43.267083,39.64742310383429
165,43.50671,39.83716960090574
166,43.74746,39.64742310383429
167,43.982959,39.83716960090574
168,44.310419,39.424357184358385
169,44.549528,40.775827791043135
170,44.79244,39.83716960090574
171,45.024965,39.83716960090574
172,45.270931,40.0281577378893
173,45.589932,40.25433648671546
174,45.878829,39.83716960090574
175,46.113215,39.424357184358385
176,46.363859,40.160390747825836
177,46.67908,39.64742310383429
178,46.983278,40.160390747825836
179,47.233135,39.2368923223045
180,47.463075,40.0281577378893
181,47.769178,39.83716960090574
182,48.030115,39.424357184358385
183,48.262168,39.83716960090574
184,48.490791,39.83716960090574
185,48.738773,40.0281577378893
186,49.07034,39.83716960090574
187,49.323955,39.2368923223045
188,49.573659,39.83716960090574
189,49.802496,39.83716960090574
190,50.039975,39.424357184358385
191,50.343666,39.83716960090574
192,50.641512,39.64742310383429
193,50.909916,40.0281577378893
194,51.154609,39.424357184358385
195,51.481126,39.64742310383429
196,51.752476,39.424357184358385
197,52.08655,39.64742310383429
198,52.380143,39.64742310383429
199,52.727066,39.83716960090574
200,52.97645,40.25433648671546
201,53.205247,40.25433648671546
202,53.454697,39.424357184358385
203,53.685132,39.64742310383429
204,53.987133,39.83716960090574
205,54.252136,39.83716960090574
206,54.505262,39.2368923223045
207,54.752784,39.64742310383429
208,54.98295,39.83716960090574
209,55.296041,39.64742310383429
210,55.545074,40.44765344861716
211,55.778558,40.0281577378893
212,56.029653,39.83716960090574
213,56.275731,39.424357184358385
214,56.591813,39.83716960090574
215,56.870468,39.64742310383429
216,57.100054,40.0281577378893
217,57.350671,39.424357184358385
218,57.587822,40.25433648671546
219,57.886138,39.2368923223045
220,58.156764,39.83716960090574
221,58.405549,39.2368923223045
222,58.659186,40.25433648671546
223,58.989077,39.83716960090574
224,59.240369,39.83716960090574
225,59.470199,39.83716960090574
226,59.701838,39.83716960090574
227,59.950027,39.83716960090574
228,60.26433,39.64742310383429
229,60.521303,39.83716960090574
230,60.765899,39.83716960090574
231,61.008147,39.83716960090574
232,61.337471,39.83716960090574
233,61.602514,39.64742310383429
234,61.837077,39.64742310383429
235,62.068308,39.64742310383429
236,62.301044,39.83716960090574
237,62.661801,39.05064118408463
238,62.915825,39.83716960090574
239,63.172369,39.83716960090574
240,63.41919,39.64742310383429
241,63.750212,39.64742310383429
242,63.993889,39.64742310383429
243,64.286215,39.83716960090574
244,64.547646,39.83716960090574
245,64.868664,39.83716960090574
246,65.129251,39.458907712651595
247,65.379265,39.83716960090574
248,65.630781,39.83716960090574
249,65.957988,39.83716960090574
250,66.195543,39.83716960090574
251,66.442716,39.64742310383429
252,66.688504,39.83716960090574
253,66.948797,39.83716960090574
254,67.253881,39.64742310383429
255,67.511722,39.83716960090574
256,67.760072,39.424357184358385
257,68.001561,39.83716960090574
258,68.25204,39.83716960090574
259,68.54956,39.2368923223045
260,68.791111,39.64742310383429
261,69.01086,39.424357184358385
262,69.242213,39.83716960090574
263,69.491149,39.83716960090574
264,69.797191,39.64742310383429
265,70.037701,39.64742310383429
266,70.325221,39.87147020139489
267,70.652466,39.64742310383429
268,70.982316,39.2368923223045
269,71.22567,39.87147020139489
270,71.460262,39.458907712651595
271,71.70862,39.424357184358385
272,71.977612,40.25433648671546
273,72.308071,39.424357184358385
274,72.566575,40.06227897185716
275,72.83039,39.83716960090574
276,73.19443,39.2368923223045
277,73.519927,39.83716960090574
278,73.762277,39.64742310383429
279,73.987609,39.83716960090574
280,74.214557,39.64742310383429
281,74.453468,39.64742310383429
282,74.743584,39.64742310383429
283,75.000651,39.64742310383429
284,75.241964,39.64742310383429
285,75.484487,39.83716960090574
286,75.74356,39.83716960090574
287,76.062574,40.0281577378893
288,76.307594,39.64742310383429
289,76.557183,39.64742310383429
290,76.788437,39.83716960090574
291,77.03014,39.05064118408463
292,77.344591,39.64742310383429
293,77.590195,40.0281577378893
294,77.820399,39.424357184358385
295,78.081287,39.64742310383429
296,78.313215,39.83716960090574
297,78.637414,39.83716960090574
298,78.895706,39.64742310383429
299,79.145771,39.64742310383429
300,79.381368,39.64742310383429
301,79.621572,39.2368923223045
302,79.946046,39.83716960090574
303,80.205063,39.2368923223045
304,80.438241,39.2368923223045
305,80.683724,39.2368923223045
306,80.91407,39.458907712651595
307,81.208687,39.83716960090574
308,81.462748,39.64742310383429
309,81.701406,39.2368923223045
310,81.952803,39.05064118408463
311,82.190454,39.83716960090574
312,82.520349,39.83716960090574
313,82.779679,39.424357184358385
314,83.029619,39.424357184358385
315,83.303649,39.83716960090574
316,83.704926,39.424357184358385
317,83.944114,39.2368923223045
318,84.210434,39.424357184358385
319,84.446406,39.2368923223045
320,84.676236,39.424357184358385
321,84.98127,39.2368923223045
322,85.239051,39.83716960090574
323,85.49675,39.05064118408463
324,85.739711,39.2368923223045
325,85.968404,39.2368923223045
326,86.292787,39.424357184358385
327,86.527525,39.05064118408463
328,86.763249,39.2368923223045
329,87.043171,39.2368923223045
330,87.287849,39.2368923223045
331,87.588789,39.83716960090574
332,87.831708,39.424357184358385
333,88.064769,39.83716960090574
334,88.290176,39.05064118408463
335,88.543237,39.458907712651595
336,88.836614,39.64742310383429
337,89.087799,39.05064118408463
338,89.333394,39.83716960090574
339,89.564842,39.424357184358385
340,89.814672,39.2368923223045
341,90.112275,39.83716960090574
342,90.356981,39.83716960090574
343,90.59844,39.424357184358385
344,90.834485,39.64742310383429
345,91.069599,39.83716960090574
346,91.390285,40.0281577378893
347,91.634673,39.424357184358385
348,91.881663,39.64742310383429
349,92.110405,39.64742310383429
350,92.347203,39.2368923223045
351,92.682583,39.2368923223045
352,92.926066,39.2368923223045
353,93.222645,39.83716960090574
354,93.437052,39.83716960090574
355,93.670214,39.424357184358385
356,94.094826,39.83716960090574
357,94.341584,39.2368923223045
358,94.584576,39.2368923223045
359,94.822419,39.2368923223045
360,95.05972,39.424357184358385
361,95.376386,39.83716960090574
362,95.608547,39.83716960090574
363,95.851691,39.83716960090574
364,96.077447,39.83716960090574
365,96.32086,39.83716960090574
366,96.636422,39.83716960090574
367,96.898386,39.83716960090574
368,97.141405,39.424357184358385
369,97.384189,39.424357184358385
370,97.626988,39.83716960090574
371,97.914082,40.160390747825836
372,98.162309,39.2368923223045
373,98.402778,39.424357184358385
374,98.627086,39.424357184358385
375,98.853509,39.55524308529916
376,99.145487,39.424357184358385
377,99.398099,39.424357184358385
378,99.629377,39.2368923223045
379,99.856577,39.83716960090574
380,100.087817,39.424357184358385
381,100.393233,39.424357184358385
382,100.630513,39.64742310383429
383,100.861343,39.424357184358385
384,101.092846,39.424357184358385
385,101.311537,39.83716960090574
386,101.618302,39.424357184358385
387,101.869661,39.424357184358385
388,102.135361,39.424357184358385
389,102.368766,39.424357184358385
390,102.707566,39.83716960090574
391,102.942433,39.424357184358385
392,103.184145,39.61304613842415
393,103.40721,39.2368923223045
394,103.645074,39.83716960090574
395,103.982184,39.83716960090574
396,104.291401,39.2368923223045
397,104.575482,39.424357184358385
398,104.807231,39.424357184358385
399,105.116122,39.424357184358385
400,105.371234,39.2368923223045
401,105.599979,39.424357184358385
402,105.830533,39.424357184358385
403,106.056766,39.2368923223045
404,106.350663,39.2368923223045
405,106.625479,39.2368923223045
406,106.856603,39.83716960090574
407,107.106813,39.61304613842415
408,107.486579,39.83716960090574
409,107.790244,39.2368923223045
410,108.025525,39.83716960090574
411,108.26085,39.83716960090574
412,108.571218,39.424357184358385
413,108.822229,39.424357184358385
414,109.071132,39.424357184358385
415,109.316577,39.424357184358385
416,109.551325,39.2368923223045
417,109.87189,39.424357184358385
418,110.137556,39.83716960090574
419,110.382158,39.424357184358385
420,110.624651,39.2368923223045
421,110.865851,39.2368923223045
422,111.172317,39.2368923223045
423,111.408471,39.61304613842415
424,111.633386,40.0281577378893
425,111.871362,39.2368923223045
426,112.119542,39.61304613842415
427,112.430839,39.424357184358385
428,112.681387,39.64742310383429
429,112.93104,39.2368923223045
430,113.170853,39.83716960090574
431,113.410572,39.2368923223045
432,113.726907,39.424357184358385
433,113.987331,39.424357184358385
434,114.286017,39.2368923223045
435,114.51723,39.61304613842415
436,114.976517,39.2368923223045
437,115.217996,39.424357184358385
438,115.46349,39.83716960090574
439,115.698006,39.424357184358385
440,115.930221,39.424357184358385
441,116.224563,39.61304613842415
442,116.505246,39.2368923223045
443,116.745576,39.2368923223045
444,116.979576,39.424357184358385
445,117.221887,39.424357184358385
446,117.534761,39.424357184358385
447,117.795506,39.424357184358385
448,118.032808,39.83716960090574
449,118.269629,39.83716960090574
450,118.519263,39.424357184358385
451,118.829358,39.2368923223045
452,119.080667,39.01585026651361
453,119.31901,39.424357184358385
454,119.554965,39.61304613842415
455,119.777056,39.83716960090574
456,120.080754,39.424357184358385
457,120.3361,39.61304613842415
458,120.571934,39.424357184358385
459,120.825601,39.424357184358385
460,121.063513,39.424357184358385
461,121.356381,39.424357184358385
462,121.597514,39.424357184358385
463,121.833968,39.2368923223045
464,122.078849,39.61304613842415
465,122.330377,39.61304613842415
466,122.637875,39.61304613842415
467,122.891659,39.93444884685275
468,123.124671,39.61304613842415
469,123.373012,39.01585026651361
470,123.613275,39.01585026651361
471,123.919518,39.424357184358385
472,124.166982,39.424357184358385
473,124.419517,39.61304613842415
474,124.669732,40.0281577378893
475,124.916962,39.61304613842415
476,125.324193,39.01585026651361
477,125.567828,39.61304613842415
478,125.814352,39.61304613842415
479,126.046734,39.424357184358385
480,126.286446,39.61304613842415
481,126.620409,39.61304613842415
482,126.863009,39.61304613842415
483,127.108445,39.61304613842415
484,127.36195,39.424357184358385
485,127.600092,39.202269283729365
486,127.897038,39.01585026651361
487,128.156972,39.424357184358385
488,128.404279,39.202269283729365
489,128.652821,39.33240759218563
490,128.966871,39.61304613842415
491,129.229527,39.01585026651361
492,129.499226,39.61304613842415
493,129.743838,39.61304613842415
494,130.043781,39.61304613842415
495,130.286893,39.61304613842415
496,130.534053,39.01585026651361
497,130.785428,39.01585026651361
498,131.023828,39.01585026651361
499,131.35355,39.202269283729365
500,131.606327,39.424357184358385
501,131.859684,39.424357184358385
502,132.122904,39.61304613842415
503,132.443588,39.01585026651361
504,132.710929,39.01585026651361
505,132.961974,39.93444884685275
506,133.212954,39.01585026651361
507,133.534754,39.01585026651361
508,133.794993,39.01585026651361
509,134.025486,39.80296965925023
510,134.260255,39.61304613842415
511,134.483131,39.424357184358385
512,134.795462,39.202269283729365
513,135.025677,39.202269283729365
514,135.265731,39.01585026651361
515,135.56083,39.01585026651361
516,135.935569,39.202269283729365
517,136.220718,39.202269283729365
518,136.467816,39.01585026651361
519,136.719638,39.01585026651361
520,137.041654,39.01585026651361
521,137.301521,39.389905410050346
522,137.554879,39.80296965925023
523,137.802379,39.93444884685275
524,138.0373,39.202269283729365
525,138.339574,39.202269283729365
526,138.576642,39.202269283729365
527,138.825515,39.202269283729365
528,139.075829,39.52033913072646
529,139.31822,39.01585026651361
530,139.633987,39.202269283729365
531,139.891923,39.01585026651361
532,140.146024,39.202269283729365
533,140.410004,39.202269283729365
534,140.725778,39.389905410050346
535,140.980822,39.202269283729365
536,141.214598,39.61304613842415
537,141.449041,39.01585026651361
538,141.698422,39.202269283729365
539,142.081631,39.61304613842415
540,142.322124,39.424357184358385
541,142.56287,39.80296965925023
542,142.793868,39.202269283729365
543,143.023252,39.202269283729365
544,143.344189,39.80296965925023
545,143.606543,39.389905410050346
546,143.841733,39.202269283729365
547,144.066806,39.202269283729365
548,144.306279,39.202269283729365
549,144.625526,39.80296965925023
550,144.884148,39.389905410050346
551,145.129532,39.202269283729365
552,145.381365,39.80296965925023
553,145.613815,39.80296965925023
554,145.934693,39.01585026651361
555,146.250231,39.80296965925023
556,146.492634,39.202269283729365
557,146.741218,39.389905410050346
558,147.067226,39.202269283729365
559,147.296101,39.202269283729365
560,147.539778,39.01585026651361
561,147.789233,39.202269283729365
562,148.020919,39.202269283729365
563,148.347106,39.202269283729365
564,148.597019,39.01585026651361
565,148.84181,39.202269283729365
566,149.075868,39.61304613842415
567,149.311335,39.202269283729365
568,149.641325,39.202269283729365
569,149.87194,39.80296965925023
570,150.122868,39.80296965925023
571,150.357688,39.202269283729365
572,150.600919,39.202269283729365
573,150.908496,39.389905410050346
574,151.150492,39.80296965925023
575,151.37962,39.01585026651361
576,151.625074,39.202269283729365
577,151.859153,39.202269283729365
578,152.16741,39.389905410050346
579,152.423867,39.202269283729365
580,152.650008,39.202269283729365
581,152.9011,39.01585026651361
582,153.136476,39.202269283729365
583,153.466068,39.389905410050346
584,153.704138,39.202269283729365
585,153.94332,39.202269283729365
586,154.176762,40.12591332299377
587,154.404532,39.01585026651361
588,154.73628,39.389905410050346
589,154.971143,39.01585026651361
590,155.208843,39.389905410050346
591,155.456046,39.389905410050346
592,155.698889,39.389905410050346
593,156.025511,39.389905410050346
594,156.27524,39.389905410050346
595,156.535007,39.52033913072646
596,156.795911,39.389905410050346
597,157.118765,39.202269283729365
598,157.356455,39.389905410050346
599,157.600442,39.389905410050346
600,157.827842,39.389905410050346
601,158.066643,39.202269283729365
602,158.380578,39.202269283729365
603,158.623922,39.202269283729365
604,158.857571,39.202269283729365
605,159.106646,39.389905410050346
606,159.339782,39.80296965925023
607,159.653664,39.389905410050346
608,159.921891,39.389905410050346
609,160.147399,39.389905410050346
610,160.374722,39.389905410050346
611,160.6133,39.389905410050346
612,160.921802,39.389905410050346
613,161.171997,39.389905410050346
614,161.403422,38.795778407295884
615,161.650263,39.389905410050346
616,161.880185,39.389905410050346
617,162.182759,38.981156248969086
618,162.431488,39.202269283729365
619,162.676849,39.389905410050346
