,time (s),surface tension (mN/m)
0,0.0,50.666014472402416
1,0.265538,51.624625495175415
2,0.533186,51.54076147039999
3,0.783614,51.54076147039999
4,1.111951,51.12594817487696
5,1.371087,51.859390749270155
6,1.618345,51.391314586415184
7,1.86833,51.12594817487696
8,2.090297,50.177407099263014
9,2.391976,50.666014472402416
10,2.656968,52.2801548729386
11,2.914061,51.624625495175415
12,3.160047,51.54076147039999
13,3.465702,51.35806192509915
14,3.730997,51.30821120471955
15,3.967707,51.30821120471955
16,4.216634,51.80828094744839
17,4.461133,51.12594817487696
18,4.761866,50.8952695335057
19,5.00257,51.30821120471955
20,5.254422,51.35806192509915
21,5.479316,51.54076147039999
22,5.731559,51.12594817487696
23,6.026624,51.35806192509915
24,6.273141,50.666014472402416
25,6.504745,51.12594817487696
26,6.740707,52.2801548729386
27,6.985103,50.177407099263014
28,7.276392,51.54076147039999
29,7.552044,50.8952695335057
30,7.805079,52.043484837569345
31,8.055046,50.58452435268686
32,8.349152,51.774758488768846
33,8.595228,51.12594817487696
34,8.856885,51.12594817487696
35,9.112985,50.40408006983297
36,9.439526,50.40408006983297
37,9.704806,50.81303644732757
38,9.951325,50.40408006983297
39,10.28917,51.54076147039999
40,10.637709,51.774758488768846
41,10.873742,50.8952695335057
42,11.111332,50.81303644732757
43,11.358697,51.54076147039999
44,11.602743,50.666014472402416
45,11.889139,50.81303644732757
46,12.122109,50.40408006983297
47,12.356573,50.63215781771837
48,12.595882,50.177407099263014
49,12.847812,50.8952695335057
50,13.151124,50.8952695335057
51,13.393873,51.12594817487696
52,13.631953,50.8952695335057
53,13.865544,51.12594817487696
54,14.128218,50.177407099263014
55,14.447753,51.12594817487696
56,14.696769,50.8952695335057
57,14.944538,50.8952695335057
58,15.197356,50.8952695335057
59,15.439264,50.8952695335057
60,15.773151,51.35806192509915
61,16.020722,50.40408006983297
62,16.254793,50.40408006983297
63,16.504861,50.81303644732757
64,16.744982,51.04296471702456
65,17.050143,52.095622164710456
66,17.290252,50.63215781771837
67,17.534048,49.47082687484714
68,17.779339,50.8952695335057
69,18.031155,50.177407099263014
70,18.361414,50.8952695335057
71,18.600521,51.54076147039999
72,18.835455,51.35806192509915
73,19.068358,51.12594817487696
74,19.307929,51.12594817487696
75,19.622443,51.35806192509915
76,19.867362,50.63215781771837
77,20.121809,50.40408006983297
78,20.372627,51.30821120471955
79,20.820145,50.8952695335057
80,21.064111,50.40408006983297
81,21.308493,50.177407099263014
82,21.544461,51.04296471702456
83,21.77186,50.177407099263014
84,22.102677,50.40408006983297
85,22.355367,51.30821120471955
86,22.585161,50.8952695335057
87,22.814714,50.8952695335057
88,23.054663,50.8952695335057
89,23.364969,51.12594817487696
90,23.616726,50.40408006983297
91,23.878729,51.30821120471955
92,24.114222,50.63215781771837
93,24.364118,50.177407099263014
94,24.693442,51.774758488768846
95,24.949485,50.177407099263014
96,25.18204,51.30821120471955
97,25.427635,51.54076147039999
98,25.661108,50.40408006983297
99,25.981402,50.40408006983297
100,26.241891,51.54076147039999
101,26.485921,51.30821120471955
102,26.739883,51.774758488768846
103,26.973861,51.54076147039999
104,27.306118,51.35806192509915
105,27.537777,50.81303644732757
106,27.787633,50.177407099263014
107,28.02346,51.12594817487696
108,28.256129,50.63215781771837
109,28.60003,50.177407099263014
110,28.850033,50.177407099263014
111,29.104326,51.30821120471955
112,29.349653,50.81303644732757
113,29.579335,50.177407099263014
114,29.893971,51.54076147039999
115,30.149187,50.177407099263014
116,30.398224,51.774758488768846
117,30.65183,50.81303644732757
118,30.972589,51.30821120471955
119,31.275482,51.35806192509915
120,31.519885,50.177407099263014
121,31.771308,49.917694932895486
122,32.099098,50.40408006983297
123,32.365101,51.35806192509915
124,32.631637,50.81303644732757
125,32.884476,51.774758488768846
126,33.205391,51.54076147039999
127,33.442864,51.04296471702456
128,33.682906,50.63215781771837
129,33.929207,49.917694932895486
130,34.164713,49.693573329794354
131,34.486744,50.81303644732757
132,34.743833,51.774758488768846
133,34.970514,51.04296471702456
134,35.20729,51.774758488768846
135,35.452985,50.81303644732757
136,35.777454,51.54076147039999
137,36.033808,50.81303644732757
138,36.286606,51.04296471702456
139,36.531489,50.40408006983297
140,36.867598,50.81303644732757
141,37.114534,50.63215781771837
142,37.361352,50.63215781771837
143,37.597438,51.04296471702456
144,37.852567,51.274320612191694
145,38.180117,50.40408006983297
146,38.437104,50.322704996849716
147,38.687832,50.81303644732757
148,38.937386,52.0102139953936
149,39.169887,50.63215781771837
150,39.492046,51.54076147039999
151,39.797127,51.274320612191694
152,40.046072,51.04296471702456
153,40.298001,50.322704996849716
154,40.607674,50.81303644732757
155,40.856701,50.322704996849716
156,41.093777,50.55004250172284
157,41.358066,50.55004250172284
158,41.77901,51.274320612191694
159,42.008946,50.40408006983297
160,42.241252,51.274320612191694
161,42.489129,49.917694932895486
162,42.736648,51.04296471702456
163,43.062528,51.04296471702456
164,43.323966,50.55004250172284
165,43.574328,51.04296471702456
166,43.814824,51.274320612191694
167,44.051222,50.322704996849716
168,44.371264,52.0102139953936
169,44.622116,50.322704996849716
170,44.870726,50.37010802297365
171,45.11708,50.40408006983297
172,45.349516,51.54076147039999
173,45.661711,49.693573329794354
174,45.938355,51.04296471702456
175,46.182756,52.0102139953936
176,46.418414,50.63215781771837
177,46.73476,50.81303644732757
178,47.010958,51.04296471702456
179,47.269713,50.40408006983297
180,47.499036,50.81303644732757
181,47.822966,50.14320276709821
182,48.063989,51.04296471702456
183,48.308357,51.04296471702456
184,48.546061,49.917694932895486
185,48.792447,50.322704996849716
186,49.10207,49.917694932895486
187,49.342702,50.55004250172284
188,49.568463,50.14320276709821
189,49.802607,51.274320612191694
190,50.053624,50.322704996849716
191,50.367053,51.274320612191694
192,50.618135,51.04296471702456
193,50.861143,50.55004250172284
194,51.095058,49.917694932895486
195,51.341805,50.63215781771837
196,51.659521,51.04296471702456
197,51.946181,50.096764970343266
198,52.240669,50.322704996849716
199,52.490135,51.274320612191694
200,52.803966,50.81303644732757
201,53.057288,51.04296471702456
202,53.30527,50.55004250172284
203,53.539149,50.55004250172284
204,53.766744,51.04296471702456
205,54.088817,50.81303644732757
206,54.338656,50.81303644732757
207,54.59795,51.04296471702456
208,54.83405,50.322704996849716
209,55.071729,50.7787887663291
210,55.406213,50.81303644732757
211,55.637565,50.81303644732757
212,55.877438,51.274320612191694
213,56.101615,50.322704996849716
214,56.334047,50.55004250172284
215,56.661434,49.917694932895486
216,56.914465,49.917694932895486
217,57.146585,51.04296471702456
218,57.398628,51.274320612191694
219,57.628168,51.274320612191694
220,57.922382,51.274320612191694
221,58.172212,51.274320612191694
222,58.408271,50.55004250172284
223,58.678316,49.613767223371255
224,58.994291,49.613767223371255
225,59.258707,50.322704996849716
226,59.526799,50.322704996849716
227,59.776337,50.322704996849716
228,60.099874,49.837165765943695
229,60.345596,50.55004250172284
230,60.582376,51.274320612191694
231,60.823458,50.322704996849716
232,61.054306,49.214462872831966
233,61.379378,51.274320612191694
234,61.643751,51.04296471702456
235,61.888024,51.274320612191694
236,62.139505,50.40408006983297
237,62.488346,49.917694932895486
238,62.725286,49.693573329794354
239,62.963354,49.837165765943695
240,63.20558,51.04296471702456
241,63.453014,50.55004250172284
242,63.781394,51.274320612191694
243,64.039373,50.55004250172284
244,64.289688,50.322704996849716
245,64.539947,50.55004250172284
246,64.871684,49.917694932895486
247,65.123224,50.7787887663291
248,65.380321,49.6590319580983
249,65.626676,51.274320612191694
250,65.960774,50.7787887663291
251,66.189007,49.917694932895486
252,66.425767,51.50711569482004
253,66.667093,50.55004250172284
254,66.895141,50.55004250172284
255,67.224057,49.917694932895486
256,67.467906,50.55004250172284
257,67.718876,49.917694932895486
258,67.965454,51.50711569482004
259,68.205245,50.322704996849716
260,68.530986,51.04296471702456
261,68.761158,50.55004250172284
262,69.005898,50.322704996849716
263,69.2605,50.14320276709821
264,69.513524,50.55004250172284
265,69.849277,50.14320276709821
266,70.098442,50.7787887663291
267,70.345867,50.061943345258534
268,70.601898,50.55004250172284
269,70.828724,50.7787887663291
270,71.15732,51.00895518177474
271,71.395945,50.55004250172284
272,71.630369,50.37010802297365
273,71.892574,50.7787887663291
274,72.118486,50.14320276709821
275,72.423502,50.061943345258534
276,72.746192,50.55004250172284
277,73.023644,50.14320276709821
278,73.266473,50.55004250172284
279,73.57075,49.837165765943695
280,73.816502,50.061943345258534
281,74.064428,50.14320276709821
282,74.318567,50.14320276709821
283,74.566943,50.55004250172284
284,74.850137,49.917694932895486
285,75.109157,50.55004250172284
286,75.341391,49.6590319580983
287,75.607555,49.436063446515014
288,75.926052,50.7787887663291
289,76.169314,50.061943345258534
290,76.401446,49.837165765943695
291,76.64902,50.061943345258534
292,76.883191,50.55004250172284
293,77.203663,50.37010802297365
294,77.466333,49.436063446515014
295,77.705516,50.14320276709821
296,77.966394,49.88337943306082
297,78.199158,49.436063446515014
298,78.5151,50.322704996849716
299,78.753186,49.6590319580983
300,78.995349,50.7787887663291
301,79.225726,51.00895518177474
302,79.449207,50.55004250172284
303,79.746328,50.55004250172284
304,80.017856,49.837165765943695
305,80.256649,50.55004250172284
306,80.500732,50.288111076250594
307,80.74474,49.436063446515014
308,81.057521,50.7787887663291
309,81.311762,50.061943345258534
310,81.556427,50.55004250172284
311,81.832447,50.061943345258534
312,82.146987,49.6590319580983
313,82.416172,49.17959490996757
314,82.695859,49.837165765943695
315,82.938354,49.613767223371255
316,83.347069,49.6590319580983
317,83.603285,50.37010802297365
318,83.835869,49.214462872831966
319,84.06648,50.061943345258534
320,84.311285,50.288111076250594
321,84.645486,49.214462872831966
322,84.904919,49.917694932895486
323,85.155092,49.837165765943695
324,85.385638,50.14320276709821
325,85.617275,50.7787887663291
326,85.922513,49.436063446515014
327,86.173686,51.00895518177474
328,86.444206,50.061943345258534
329,86.702743,50.288111076250594
330,87.029395,49.6590319580983
331,87.282197,50.7787887663291
332,87.510659,50.7787887663291
333,87.74139,50.37010802297365
334,87.969072,50.7787887663291
335,88.275768,50.55004250172284
336,88.527949,50.37010802297365
337,88.783787,49.6590319580983
338,89.012899,50.14320276709821
339,89.254857,50.55004250172284
340,89.551675,49.917694932895486
341,89.788163,50.061943345258534
342,90.012953,49.6590319580983
343,90.242406,50.55004250172284
344,90.478004,50.061943345258534
345,90.784778,49.436063446515014
346,91.017625,50.061943345258534
347,91.256891,49.214462872831966
348,91.501495,49.917694932895486
349,91.734296,50.7787887663291
350,92.061402,50.14320276709821
351,92.293902,50.061943345258534
352,92.522145,49.837165765943695
353,92.771382,49.436063446515014
354,93.024016,50.061943345258534
355,93.324294,49.917694932895486
356,93.690992,50.55004250172284
357,93.974276,49.837165765943695
358,94.212576,49.436063446515014
359,94.525824,50.37010802297365
360,94.78194,49.17959490996757
361,95.035202,49.6590319580983
362,95.299006,50.061943345258534
363,95.600476,49.6590319580983
364,95.868856,50.061943345258534
365,96.11297,49.917694932895486
366,96.3647,49.837165765943695
367,96.689778,49.6590319580983
368,96.943498,50.061943345258534
369,97.19484,50.37010802297365
370,97.429291,50.55004250172284
371,97.658201,49.436063446515014
372,97.968229,49.917694932895486
373,98.232656,50.55004250172284
374,98.490639,50.061943345258534
375,98.745631,49.837165765943695
376,99.062429,48.959135513400014
377,99.297739,49.35636825085078
378,99.537073,49.6590319580983
379,99.77379,49.6590319580983
380,100.024988,50.37010802297365
381,100.325716,50.061943345258534
382,100.596764,49.917694932895486
383,100.851666,49.917694932895486
384,101.10045,49.837165765943695
385,101.416689,49.6590319580983
386,101.71791,50.55004250172284
387,101.966163,48.959135513400014
388,102.211433,49.436063446515014
389,102.546622,49.88337943306082
390,102.799081,50.37010802297365
391,103.048868,49.6590319580983
392,103.298192,49.35636825085078
393,103.660636,49.837165765943695
394,103.910301,50.061943345258534
395,104.213715,50.061943345258534
396,104.44689,49.6590319580983
397,104.751151,49.6590319580983
398,105.000416,49.436063446515014
399,105.246939,50.37010802297365
400,105.479608,50.7787887663291
401,105.698079,49.436063446515014
402,105.998186,50.55004250172284
403,106.263929,49.436063446515014
404,106.513788,50.061943345258534
405,106.760565,50.061943345258534
406,107.072574,50.061943345258534
407,107.335603,49.837165765943695
408,107.577988,49.436063446515014
409,107.827324,50.7787887663291
410,108.054482,50.7787887663291
411,108.367368,48.959135513400014
412,108.614881,50.061943345258534
413,108.876072,50.7787887663291
414,109.121823,48.959135513400014
415,109.439939,49.6590319580983
416,109.692043,50.7787887663291
417,109.941127,49.88337943306082
418,110.191651,48.959135513400014
419,110.516559,49.436063446515014
420,110.775019,49.135480990885085
421,111.006583,49.35636825085078
422,111.251729,49.57861635730214
423,111.489156,49.35636825085078
424,111.811368,50.288111076250594
425,112.067691,48.959135513400014
426,112.314935,49.6590319580983
427,112.555553,49.6590319580983
428,112.804732,50.061943345258534
429,113.125747,49.57861635730214
430,113.387663,49.57861635730214
431,113.611629,50.288111076250594
432,113.860113,50.061943345258534
433,114.096315,50.061943345258534
434,114.439957,48.959135513400014
435,114.764775,49.6590319580983
436,115.014167,49.57861635730214
437,115.264273,48.959135513400014
438,115.580068,49.17959490996757
439,115.851055,49.57861635730214
440,116.098045,49.17959490996757
441,116.348839,49.35636825085078
442,116.674231,48.74002601087584
443,116.924258,49.88337943306082
444,117.18579,49.57861635730214
445,117.41601,49.57861635730214
446,117.643361,48.959135513400014
447,117.936964,49.35636825085078
448,118.197183,49.837165765943695
449,118.433917,50.288111076250594
450,118.65979,49.35636825085078
451,119.01033,49.6590319580983
452,119.272744,49.57861635730214
453,119.524685,49.6590319580983
454,119.770373,48.959135513400014
455,120.100536,50.061943345258534
456,120.362142,49.17959490996757
457,120.607788,50.061943345258534
458,120.852505,49.6590319580983
459,121.076708,50.061943345258534
460,121.382579,49.6590319580983
461,121.637448,49.57861635730214
462,121.893331,49.17959490996757
463,122.132908,49.35636825085078
464,122.380791,49.837165765943695
465,122.696996,49.436063446515014
466,122.946234,50.061943345258534
467,123.18112,49.837165765943695
468,123.429784,49.837165765943695
469,123.659751,48.959135513400014
470,123.97469,49.88337943306082
471,124.234446,50.061943345258534
472,124.472635,48.959135513400014
473,124.70588,49.6590319580983
474,125.0969,49.57861635730214
475,125.353999,49.57861635730214
476,125.601996,49.57861635730214
477,125.838836,50.288111076250594
478,126.168985,49.35636825085078
479,126.432574,49.57861635730214
480,126.685682,48.959135513400014
481,126.918237,49.35636825085078
482,127.152153,49.35636825085078
483,127.469994,48.959135513400014
484,127.712795,50.288111076250594
485,127.956017,50.061943345258534
486,128.180377,48.959135513400014
487,128.417159,50.288111076250594
488,128.713196,51.00895518177474
489,128.950098,49.88337943306082
490,129.183513,50.51568018178867
491,129.420242,50.288111076250594
492,129.662795,50.288111076250594
493,129.976727,49.57861635730214
494,130.236894,50.7787887663291
495,130.472073,48.959135513400014
496,130.70699,48.959135513400014
497,130.952105,49.6590319580983
498,131.257146,49.6590319580983
499,131.512857,49.436063446515014
500,131.760469,49.6590319580983
501,131.990722,49.6590319580983
502,132.239858,49.88337943306082
503,132.555028,50.288111076250594
504,132.782881,50.061943345258534
505,133.014103,50.288111076250594
506,133.310527,50.288111076250594
507,133.632101,48.959135513400014
508,133.870038,49.17959490996757
509,134.098828,48.959135513400014
510,134.354868,49.436063446515014
511,134.60207,49.6590319580983
512,134.913485,49.57861635730214
513,135.163526,50.10911700394682
514,135.494971,49.57861635730214
515,135.74943,50.288111076250594
516,136.078738,48.959135513400014
517,136.340105,48.959135513400014
518,136.581833,49.436063446515014
519,136.83777,49.40141506351722
520,137.067358,49.57861635730214
521,137.377259,48.959135513400014
522,137.639391,49.40141506351722
523,137.901423,49.57861635730214
524,138.151682,49.6590319580983
525,138.482219,50.061943345258534
526,138.738149,49.35636825085078
527,138.988838,49.88337943306082
528,139.224294,50.288111076250594
529,139.473497,49.17959490996757
530,139.789984,48.959135513400014
531,140.042506,49.6590319580983
532,140.282303,50.51568018178867
533,140.531516,49.57861635730214
534,140.751118,50.288111076250594
535,141.068007,49.10001122896019
536,141.315123,48.2702135928356
537,141.55878,49.17959490996757
538,141.796604,49.17959490996757
539,142.040606,50.061943345258534
540,142.345556,49.17959490996757
541,142.598131,49.35636825085078
542,142.825708,50.288111076250594
543,143.058632,48.959135513400014
544,143.311305,48.48686160781364
545,143.639062,50.10911700394682
546,143.891265,48.48686160781364
547,144.122115,48.88026252400416
548,144.356113,48.48686160781364
549,144.595918,49.17959490996757
550,144.916853,50.061943345258534
551,145.164544,49.40141506351722
552,145.398966,49.80223626131495
553,145.761973,49.17959490996757
554,146.129899,49.10001122896019
555,146.381271,50.061943345258534
556,146.654492,48.704841718711506
557,146.887413,49.35636825085078
558,147.20295,50.82815610755928
559,147.442075,50.288111076250594
560,147.681023,50.288111076250594
561,147.928043,49.17959490996757
562,148.173161,48.2702135928356
563,148.496694,50.10911700394682
564,148.770046,49.40141506351722
565,149.031255,48.959135513400014
566,149.263576,49.88337943306082
567,149.587419,48.704841718711506
568,149.852228,50.10911700394682
569,150.086327,50.027239020124696
570,150.324054,49.17959490996757
571,150.580384,49.57861635730214
572,150.919925,49.88337943306082
573,151.158927,48.48686160781364
574,151.389188,49.10001122896019
575,151.641347,48.704841718711506
576,151.869236,48.704841718711506
577,152.17479,49.80223626131495
578,152.417597,49.80223626131495
579,152.667142,50.061943345258534
580,152.918475,48.2702135928356
581,153.147014,48.48686160781364
582,153.471135,49.40141506351722
583,153.70844,49.40141506351722
584,153.942054,49.17959490996757
585,154.190989,49.40141506351722
586,154.417822,49.40141506351722
587,154.750872,48.704841718711506
588,155.00297,49.80223626131495
589,155.24045,49.80223626131495
590,155.486159,49.57861635730214
591,155.734205,49.10001122896019
592,156.078326,49.57861635730214
593,156.395045,48.88026252400416
594,156.650552,49.80223626131495
595,156.929018,49.57861635730214
596,157.242023,48.924164628438106
597,157.493443,49.10001122896019
598,157.739773,49.80223626131495
599,157.997377,49.40141506351722
600,158.331779,49.57861635730214
601,158.577442,50.027239020124696
602,158.804677,49.57861635730214
603,159.055193,50.027239020124696
604,159.311377,49.321113627619816
605,159.641424,49.80223626131495
606,159.888875,48.88026252400416
607,160.133825,49.321113627619816
608,160.377975,48.88026252400416
609,160.612578,49.10001122896019
610,160.922028,49.80223626131495
611,161.1753,49.57861635730214
612,161.415951,49.80223626131495
613,161.663251,49.80223626131495
614,161.915722,49.321113627619816
615,162.280542,48.88026252400416
616,162.540869,48.704841718711506
617,162.791354,49.80223626131495
