,time (s),surface tension (mN/m)
0,0.0,37.72899386925659
1,0.199354,38.62250070999478
2,0.389689,38.09216413006177
3,0.586878,38.99555345724763
4,0.775072,38.49481379929799
5,0.964545,38.310400973070266
6,1.19246,37.90998646341093
7,1.436938,38.40248597744298
8,1.674396,37.90998646341093
9,1.908744,38.40248597744298
10,2.156133,38.310400973070266
11,2.425173,38.09216413006177
12,2.674573,38.99555345724763
13,2.896964,37.72899386925659
14,3.113585,38.40248597744298
15,3.308577,38.09216413006177
16,3.560494,38.49481379929799
17,3.753379,37.72899386925659
18,3.97627,38.40248597744298
19,4.18409,37.90998646341093
20,4.375258,38.49481379929799
21,4.616836,37.90998646341093
22,4.814598,38.49481379929799
23,5.00144,37.90998646341093
24,5.189392,38.49481379929799
25,5.416313,38.49481379929799
26,5.684284,37.72899386925659
27,5.94026,38.808415874832626
28,6.135774,38.62250070999478
29,6.396882,38.40248597744298
30,6.62617,38.40248597744298
31,6.880684,38.99555345724763
32,7.091591,38.21882418114612
33,7.297378,38.49481379929799
34,7.503856,38.21882418114612
35,7.716448,37.81938507794158
36,7.963768,38.49481379929799
37,8.180213,38.49481379929799
38,8.422474,38.310400973070266
39,8.611227,38.21882418114612
40,8.802076,38.49481379929799
41,9.021939,38.49481379929799
42,9.224784,38.09216413006177
43,9.472286,38.808415874832626
44,9.717377,38.808415874832626
45,9.96511,38.09216413006177
46,10.325584,38.62250070999478
47,10.589903,37.90998646341093
48,10.802675,38.09216413006177
49,11.007766,38.310400973070266
50,11.193756,38.49481379929799
51,11.458092,38.40248597744298
52,11.668523,38.808415874832626
53,11.913693,38.808415874832626
54,12.100485,38.40248597744298
55,12.290288,38.808415874832626
56,12.523216,37.90998646341093
57,12.719058,38.808415874832626
58,12.896083,38.310400973070266
59,13.11003,38.49481379929799
60,13.371101,38.03635711166429
61,13.667193,38.808415874832626
62,13.916025,38.40248597744298
63,14.168307,38.808415874832626
64,14.374433,38.40248597744298
65,14.582558,38.808415874832626
66,14.835518,38.62250070999478
67,15.039877,37.90998646341093
68,15.256411,38.808415874832626
69,15.479489,38.808415874832626
70,15.699466,38.310400973070266
71,15.938085,38.62250070999478
72,16.130012,38.49481379929799
73,16.319072,38.49481379929799
74,16.513718,38.62250070999478
75,16.709501,38.49481379929799
76,16.930852,38.62250070999478
77,17.236608,38.21882418114612
78,17.486715,38.49481379929799
79,17.736917,38.99555345724763
80,17.9841,38.40248597744298
81,18.196388,38.310400973070266
82,18.472223,38.09216413006177
83,18.685844,38.21882418114612
84,18.880816,38.808415874832626
85,19.098679,38.310400973070266
86,19.351351,38.40248597744298
87,19.615911,38.49481379929799
88,19.822602,38.09216413006177
89,20.01527,37.90998646341093
90,20.209713,38.40248597744298
91,20.418573,38.808415874832626
92,20.679981,38.49481379929799
93,20.870671,38.49481379929799
94,21.088069,38.49481379929799
95,21.332075,38.21882418114612
96,21.559765,38.62250070999478
97,21.849754,38.09216413006177
98,22.080725,38.62250070999478
99,22.290126,38.21882418114612
100,22.498041,38.62250070999478
101,22.704079,38.310400973070266
102,22.954513,38.21882418114612
103,23.149032,38.62250070999478
104,23.370993,37.72899386925659
105,23.58672,38.808415874832626
106,23.778671,38.62250070999478
107,24.015045,38.808415874832626
108,24.212042,38.49481379929799
109,24.401593,38.49481379929799
110,24.585888,38.21882418114612
111,24.812812,38.21882418114612
112,25.088208,38.09216413006177
113,25.336977,38.808415874832626
114,25.563879,38.49481379929799
115,25.816917,38.99555345724763
116,26.046728,38.310400973070266
117,26.343385,38.21882418114612
118,26.553402,38.09216413006177
119,26.756844,38.09216413006177
120,26.974439,38.40248597744298
121,27.185648,38.40248597744298
122,27.442606,38.09216413006177
123,27.636892,38.40248597744298
124,27.825635,38.68043916502151
125,28.015031,38.808415874832626
126,28.201545,37.90998646341093
127,28.390794,38.49481379929799
128,28.616289,38.49481379929799
129,28.847639,38.40248597744298
130,29.083434,38.09216413006177
131,29.325547,38.68043916502151
132,29.555418,38.09216413006177
133,29.830404,38.310400973070266
134,30.043278,38.62250070999478
135,30.253673,38.310400973070266
136,30.496587,38.310400973070266
137,30.76398,38.99555345724763
138,31.020995,38.808415874832626
139,31.222121,38.09216413006177
140,31.410664,38.49481379929799
141,31.604524,38.49481379929799
142,31.794812,38.310400973070266
143,31.985657,38.62250070999478
144,32.21875,38.310400973070266
145,32.448442,37.72899386925659
146,32.707573,38.49481379929799
147,32.939395,37.72899386925659
148,33.17033,38.310400973070266
149,33.466097,38.40248597744298
150,33.68771,38.310400973070266
151,33.897547,38.310400973070266
152,34.105866,38.310400973070266
153,34.296296,38.99555345724763
154,34.548565,37.90998646341093
155,34.764262,38.49481379929799
156,34.97611,38.49481379929799
157,35.169568,38.40248597744298
158,35.359522,38.49481379929799
159,35.593664,38.310400973070266
160,35.783707,38.49481379929799
161,35.970702,38.49481379929799
162,36.174832,38.62250070999478
163,36.388006,38.49481379929799
164,36.674136,38.58735276677803
165,36.912318,38.58735276677803
166,37.147511,38.09216413006177
167,37.385257,38.40248597744298
168,37.614934,38.49481379929799
169,37.87026,38.49481379929799
170,38.05935,38.09216413006177
171,38.263543,37.90998646341093
172,38.476639,37.90998646341093
173,38.686795,38.09216413006177
174,38.921067,38.09216413006177
175,39.11886,38.09216413006177
176,39.310416,38.09216413006177
177,39.498457,38.09216413006177
178,39.687876,38.09216413006177
179,39.875552,38.310400973070266
180,40.154946,38.40248597744298
181,40.440838,38.09216413006177
182,40.685458,38.40248597744298
183,41.025821,37.90998646341093
184,41.294163,38.09216413006177
185,41.52488,38.68043916502151
186,41.749716,38.09216413006177
187,41.957149,38.49481379929799
188,42.15641,38.49481379929799
189,42.424125,38.09216413006177
190,42.652554,38.09216413006177
191,42.85335,38.808415874832626
192,43.048257,38.40248597744298
193,43.241008,38.09216413006177
194,43.484846,38.68043916502151
195,43.673296,38.09216413006177
196,43.862928,38.09216413006177
197,44.032427,38.99555345724763
198,44.24516,38.09216413006177
199,44.534764,38.58735276677803
200,44.79918,38.09216413006177
201,45.050395,38.27553705247322
202,45.306543,38.58735276677803
203,45.510166,38.99555345724763
204,45.771787,38.09216413006177
205,45.988384,38.09216413006177
206,46.199439,38.40248597744298
207,46.412731,38.09216413006177
208,46.636228,38.68043916502151
209,46.869239,39.183923997003355
210,47.081467,38.68043916502151
211,47.268617,38.09216413006177
212,47.458065,38.99555345724763
213,47.643701,38.808415874832626
214,47.84682,38.58735276677803
215,48.125347,38.58735276677803
216,48.375999,38.77343492147878
217,48.6214,38.09216413006177
218,48.873049,37.87489563852164
219,49.102906,39.183923997003355
220,49.356709,38.40248597744298
221,49.571133,38.09216413006177
222,49.831309,38.58735276677803
223,50.043455,38.09216413006177
224,50.249036,38.99555345724763
225,50.520022,38.40248597744298
226,50.714684,38.27553705247322
227,50.905956,38.867287524834936
228,51.101168,38.40248597744298
229,51.323458,38.49481379929799
230,51.563395,38.99555345724763
231,51.752956,38.27553705247322
232,51.96148,38.27553705247322
233,52.236817,37.693746275467866
234,52.466987,38.27553705247322
235,52.757129,38.27553705247322
236,52.987392,38.58735276677803
237,53.197699,38.46011551915634
238,53.401711,38.27553705247322
239,53.610651,38.867287524834936
240,53.863353,38.27553705247322
241,54.079929,38.09216413006177
242,54.30706,38.09216413006177
243,54.508036,38.58735276677803
244,54.702007,38.58735276677803
245,54.93459,38.68043916502151
246,55.134348,38.27553705247322
247,55.323134,38.09216413006177
248,55.512906,38.867287524834936
249,55.760942,38.09216413006177
250,56.05839,38.46011551915634
251,56.28763,38.27553705247322
252,56.514973,38.09216413006177
253,56.755667,38.46011551915634
254,56.963081,38.183447485137265
255,57.225728,38.58735276677803
256,57.4596,38.09216413006177
257,57.664308,38.27553705247322
258,57.876865,38.46011551915634
259,58.088978,38.46011551915634
260,58.337623,38.46011551915634
261,58.538925,38.27553705247322
262,58.732101,38.27553705247322
263,58.922434,38.27553705247322
264,59.11919,38.09216413006177
265,59.297479,38.867287524834936
266,59.575082,37.87489563852164
267,59.835542,38.40248597744298
268,60.087563,38.09216413006177
269,60.358069,38.46011551915634
270,60.648078,38.99555345724763
271,60.860576,38.46011551915634
272,61.066953,38.867287524834936
273,61.299318,38.46011551915634
274,61.579387,38.09216413006177
275,61.835286,38.867287524834936
276,62.038482,38.27553705247322
277,62.258597,38.09216413006177
278,62.448621,38.27553705247322
279,62.639029,37.693746275467866
280,62.827239,38.46011551915634
281,63.063314,38.27553705247322
282,63.288741,38.27553705247322
283,63.513084,38.09216413006177
284,63.754023,37.87489563852164
285,63.99079,38.77343492147878
286,64.265817,38.46011551915634
287,64.510011,37.87489563852164
288,64.720364,38.46011551915634
289,64.918578,38.46011551915634
290,65.125561,38.27553705247322
291,65.373729,38.77343492147878
292,65.58899,38.46011551915634
293,65.851291,38.46011551915634
294,66.067602,38.867287524834936
295,66.263158,38.77343492147878
296,66.495624,38.27553705247322
297,66.686288,38.46011551915634
298,66.87427,38.27553705247322
299,67.081676,38.58735276677803
300,67.295998,37.87489563852164
301,67.590921,38.27553705247322
302,67.831755,38.46011551915634
303,68.062684,38.46011551915634
304,68.293386,38.27553705247322
305,68.530338,38.46011551915634
306,68.781782,38.057233352059534
307,68.982331,38.46011551915634
308,69.197525,38.77343492147878
309,69.410022,38.867287524834936
310,69.637122,37.87489563852164
311,69.901497,38.46011551915634
312,70.096465,37.87489563852164
313,70.287806,37.87489563852164
314,70.507852,38.77343492147878
315,70.700044,38.057233352059534
316,70.8873,38.46011551915634
317,71.144446,38.057233352059534
318,71.404787,38.46011551915634
319,71.654201,38.057233352059534
320,71.991386,38.27553705247322
321,72.247553,38.46011551915634
322,72.465989,37.87489563852164
323,72.690082,37.87489563852164
324,72.89076,38.46011551915634
325,73.097682,38.46011551915634
326,73.359359,38.46011551915634
327,73.582395,38.057233352059534
328,73.783202,38.057233352059534
329,73.974069,38.64590992515253
330,74.162785,38.46011551915634
331,74.350558,38.46011551915634
332,74.579416,38.46011551915634
333,74.770914,38.46011551915634
334,74.996155,37.87489563852164
335,75.22711,38.46011551915634
336,75.477667,38.96074292127093
337,75.76899,37.87489563852164
338,76.017067,38.46011551915634
339,76.224708,38.77343492147878
340,76.421912,38.057233352059534
341,76.636548,37.87489563852164
342,76.877357,38.057233352059534
343,77.102654,38.96074292127093
344,77.319823,38.96074292127093
345,77.541531,38.057233352059534
346,77.736889,38.057233352059534
347,77.980777,38.057233352059534
348,78.173453,38.057233352059534
349,78.367464,38.96074292127093
350,78.56332,38.96074292127093
351,78.775723,37.87489563852164
352,79.059866,38.057233352059534
353,79.308257,38.8329307733352
354,79.554353,38.46011551915634
355,79.800019,38.057233352059534
356,80.048566,38.057233352059534
357,80.30103,38.057233352059534
358,80.507956,37.87489563852164
359,80.702494,38.96074292127093
360,80.915308,38.057233352059534
361,81.133234,38.77343492147878
362,81.388992,38.057233352059534
363,81.578018,38.057233352059534
364,81.766306,38.057233352059534
365,81.958115,38.64590992515253
366,82.176032,37.47846662940403
367,82.367266,38.057233352059534
368,82.640806,38.46011551915634
369,82.910254,38.77343492147878
370,83.140951,38.27553705247322
371,83.370419,38.057233352059534
372,83.621068,38.96074292127093
373,83.875557,38.77343492147878
374,84.081995,38.46011551915634
375,84.312831,38.46011551915634
376,84.5183,39.05536944178207
377,84.746091,38.46011551915634
378,85.000222,38.057233352059534
379,85.215294,38.240769645913694
380,85.440157,38.183447485137265
381,85.631064,38.46011551915634
382,85.817503,38.240769645913694
383,86.050516,38.77343492147878
384,86.242058,38.46011551915634
385,86.460701,38.46011551915634
386,86.713238,38.77343492147878
387,86.947232,38.46011551915634
388,87.23974,37.87489563852164
389,87.481861,38.057233352059534
390,87.713435,38.46011551915634
391,87.941901,38.46011551915634
392,88.152409,38.64590992515253
393,88.38541,38.552302123860606
394,88.601002,38.240769645913694
395,88.820907,38.64590992515253
396,89.03851,38.77343492147878
397,89.233383,39.149287354590655
398,89.463411,38.240769645913694
399,89.659939,38.46011551915634
400,89.863312,38.240769645913694
401,90.061569,38.552302123860606
402,90.286612,38.057233352059534
403,90.600465,38.46011551915634
404,90.835026,38.057233352059534
405,91.081329,38.240769645913694
406,91.32385,38.240769645913694
407,91.536654,38.057233352059534
408,91.791558,38.057233352059534
409,92.016074,38.46011551915634
410,92.213749,38.057233352059534
411,92.457542,38.64590992515253
412,92.673484,38.96074292127093
413,92.921457,38.46011551915634
414,93.119289,38.240769645913694
415,93.307624,38.057233352059534
416,93.496188,38.057233352059534
417,93.686296,38.46011551915634
418,93.876511,38.240769645913694
419,94.132639,38.240769645913694
420,94.380387,38.552302123860606
421,94.627855,38.240769645913694
422,94.857322,38.738552380195095
423,95.085774,38.42551485583908
424,95.3689,38.057233352059534
425,95.573432,38.240769645913694
426,95.819019,38.64590992515253
427,96.027872,38.46011551915634
428,96.251793,38.96074292127093
429,96.521043,39.149287354590655
430,96.720827,38.552302123860606
431,96.905957,37.65859233768381
432,97.09475,38.738552380195095
433,97.286283,38.42551485583908
434,97.471429,38.42551485583908
435,97.704811,38.240769645913694
436,97.944077,38.42551485583908
437,98.179265,38.240769645913694
438,98.426968,37.839899522076
439,98.647326,38.738552380195095
440,98.938862,37.65859233768381
441,99.156905,39.339078919915146
442,99.368528,38.240769645913694
443,99.578605,38.61147942480763
444,99.783115,38.552302123860606
445,100.023807,38.148166269124445
446,100.254455,37.839899522076
447,100.478353,38.738552380195095
448,100.66683,38.240769645913694
449,100.856257,38.42551485583908
450,101.095255,38.92603192921026
451,101.286892,38.738552380195095
452,101.482018,38.42551485583908
453,101.66711,38.42551485583908
454,101.893437,38.738552380195095
455,102.185,38.02239835399649
456,102.439247,39.339078919915146
457,102.749847,38.738552380195095
458,102.959019,38.02239835399649
459,103.165018,38.738552380195095
460,103.399374,38.92603192921026
461,103.635987,38.02239835399649
462,103.845029,38.148166269124445
463,104.064824,38.738552380195095
464,104.276715,38.42551485583908
465,104.520066,38.92603192921026
466,104.733533,38.738552380195095
467,104.924646,38.92603192921026
468,105.112083,38.33215184709783
469,105.320175,38.42551485583908
470,105.511826,38.61147942480763
471,105.768865,38.92603192921026
472,106.007946,38.61147942480763
473,106.249383,38.61147942480763
474,106.551309,38.92603192921026
475,106.840914,38.92603192921026
476,107.069268,38.61147942480763
477,107.309126,38.33215184709783
478,107.534622,38.61147942480763
479,107.724876,38.61147942480763
480,107.99444,38.798673904320545
481,108.21878,39.339078919915146
482,108.42519,38.42551485583908
483,108.616217,39.114751408366246
484,108.809952,38.61147942480763
485,109.04674,38.20609911017914
486,109.250629,37.804998458516835
487,109.457828,38.5173491409366
488,109.659409,38.20609911017914
489,109.880645,39.114751408366246
490,110.137897,38.5173491409366
491,110.383209,38.39101217396248
492,110.644525,39.114751408366246
493,110.883905,38.02239835399649
494,111.124185,38.33215184709783
495,111.382406,38.20609911017914
496,111.586467,38.70376861856827
497,111.775935,38.39101217396248
498,111.989983,38.02239835399649
499,112.198651,38.20609911017914
500,112.459212,38.798673904320545
501,112.653057,38.5173491409366
502,112.840247,38.70376861856827
503,113.103983,38.5173491409366
504,113.278919,39.30472156587844
505,113.528353,38.70376861856827
506,113.799428,38.70376861856827
507,114.029644,38.70376861856827
508,114.288573,38.70376861856827
509,114.616789,38.798673904320545
510,114.841021,39.114751408366246
511,115.048988,38.39101217396248
512,115.282324,38.20609911017914
513,115.484816,38.89142085670898
514,115.73561,37.804998458516835
515,115.951151,39.30472156587844
516,116.166265,39.30472156587844
517,116.360036,38.39101217396248
518,116.549986,38.89142085670898
519,116.807135,38.39101217396248
520,116.995078,38.39101217396248
521,117.210667,37.804998458516835
522,117.470065,39.30472156587844
523,117.721576,39.30472156587844
524,117.992299,38.1129808803565
525,118.223615,38.70376861856827
526,118.432379,38.70376861856827
527,118.644913,38.70376861856827
528,118.851612,38.29712997714873
529,119.113854,38.39101217396248
530,119.334719,38.48249418070149
531,119.543234,38.39101217396248
532,119.766963,38.57714803659461
533,119.977176,37.804998458516835
534,120.207137,38.70376861856827
535,120.398131,38.57714803659461
536,120.592067,38.1129808803565
537,120.776638,38.29712997714873
538,120.978434,37.987659487897396
539,121.191878,38.171525805034186
540,121.508388,37.987659487897396
541,121.765356,38.57714803659461
542,122.024182,38.89142085670898
543,122.256834,37.987659487897396
544,122.479307,38.89142085670898
545,122.743675,38.89142085670898
546,122.983218,38.89142085670898
547,123.256178,38.171525805034186
548,123.476286,37.987659487897396
549,123.783341,38.89142085670898
550,123.98841,38.89142085670898
551,124.182683,38.171525805034186
552,124.383043,38.48249418070149
553,124.575271,38.29712997714873
554,124.767049,38.89142085670898
555,124.999902,39.08031654219773
556,125.1937,38.48249418070149
557,125.438316,38.171525805034186
558,125.702468,38.171525805034186
559,125.939749,38.48249418070149
560,126.201054,37.987659487897396
561,126.415852,38.29712997714873
562,126.619309,38.76451729855656
563,126.830253,38.171525805034186
564,127.076817,38.3566078411922
565,127.321534,38.29712997714873
566,127.549945,39.08031654219773
567,127.772812,38.29712997714873
568,127.992201,39.08031654219773
569,128.169049,38.66908400725916
570,128.40001,39.27046647334912
571,128.598491,38.76451729855656
572,128.786286,38.171525805034186
573,128.967379,39.27046647334912
574,129.197262,38.077891668972306
575,129.544696,37.770192795153626
576,129.792772,38.171525805034186
577,130.043703,38.66908400725916
578,130.272949,39.68845747079251
579,130.485253,38.66908400725916
580,130.757153,38.48249418070149
581,130.967771,38.077891668972306
582,131.190165,39.08031654219773
583,131.406228,38.3566078411922
584,131.615661,38.66908400725916
585,131.863343,38.66908400725916
586,132.051757,38.48249418070149
587,132.242006,38.48249418070149
588,132.431886,38.66908400725916
589,132.622684,39.08031654219773
590,132.809238,38.13705009325135
591,133.072513,39.27046647334912
592,133.313168,37.894786019259
593,133.617321,38.66908400725916
594,133.854922,38.26220538016571
595,134.122118,38.54291613624482
596,134.329661,39.27046647334912
597,134.530044,39.08031654219773
598,134.763725,38.66908400725916
599,134.954985,38.85691008255933
600,135.219073,38.3566078411922
601,135.442264,38.3566078411922
602,135.658293,38.66908400725916
603,135.845242,38.48249418070149
604,136.032566,38.44773760888314
605,136.264171,38.54291613624482
606,136.461958,39.27046647334912
607,136.666908,39.27046647334912
608,136.883384,39.08031654219773
609,137.120999,38.54291613624482
610,137.41524,37.770192795153626
611,137.643601,37.770192795153626
612,137.875226,39.27046647334912
613,138.101058,38.26220538016571
614,138.31249,38.3566078411922
615,138.556128,38.66908400725916
616,138.756924,38.54291613624482
617,138.979049,38.66908400725916
618,139.192268,38.85691008255933
619,139.397804,38.66908400725916
620,139.627547,39.27046647334912
