,time (s),surface tension (mN/m)
0,0.104895,52.46354312029764
1,0.353068,52.70169191482626
2,0.615709,51.72438590382725
3,0.876679,52.941325745960235
4,1.165018,52.70169191482626
5,1.434491,52.22686741642519
6,1.684162,53.129290097026264
7,1.921202,52.46354312029764
8,2.148219,52.46354312029764
9,2.488568,52.46354312029764
10,2.721963,52.46354312029764
11,2.96176,53.21454099351738
12,3.19985,52.734306903597215
13,3.423145,52.22686741642519
14,3.754992,52.22686741642519
15,4.011052,52.46354312029764
16,4.25517,53.403482508090875
17,4.486646,52.97367755489263
18,4.714338,52.8892090686749
19,5.026925,52.46354312029764
20,5.270583,52.46354312029764
21,5.572647,52.8892090686749
22,5.79995,52.22686741642519
23,6.118126,52.70169191482626
24,6.365513,52.22686741642519
25,6.599514,52.22686741642519
26,6.846893,51.99165297274029
27,7.094959,52.46354312029764
28,7.403726,52.8892090686749
29,7.639288,52.65061308298474
30,7.867312,51.49181510014308
31,8.127512,53.403482508090875
32,8.396967,52.46354312029764
33,8.714132,52.22686741642519
34,8.974583,51.75788807294248
35,9.218739,53.16216970936818
36,9.474814,52.46354312029764
37,9.806649,51.99165297274029
38,10.061235,51.95839871453641
39,10.383099,52.70169191482626
40,10.693493,52.70169191482626
41,10.991402,53.129290097026264
42,11.253211,53.403482508090875
43,11.478708,52.22686741642519
44,11.717408,51.99165297274029
45,11.94592,52.65061308298474
46,12.254754,51.99165297274029
47,12.504368,52.941325745960235
48,12.746728,52.22686741642519
49,12.972926,51.72438590382725
50,13.200086,52.46354312029764
51,13.503656,52.46354312029764
52,13.749815,52.22686741642519
53,13.996904,52.22686741642519
54,14.240768,52.22686741642519
55,14.486813,52.70169191482626
56,14.780065,52.46354312029764
57,15.016259,53.129290097026264
58,15.259553,53.64630020595802
59,15.501589,51.72438590382725
60,15.738033,52.46354312029764
61,16.044576,52.8892090686749
62,16.291025,52.22686741642519
63,16.536734,52.46354312029764
64,16.784237,51.95839871453641
65,17.038719,52.46354312029764
66,17.330111,52.65061308298474
67,17.576377,52.46354312029764
68,17.806195,52.46354312029764
69,18.04996,52.46354312029764
70,18.276381,53.21454099351738
71,18.575584,52.46354312029764
72,18.824424,53.45690934454474
73,19.048283,53.21454099351738
74,19.272632,51.49181510014308
75,19.520446,53.129290097026264
76,19.836736,51.72438590382725
77,20.086329,52.46354312029764
78,20.314392,52.46354312029764
79,20.564846,51.72438590382725
80,20.943614,52.70169191482626
81,21.213989,52.8892090686749
82,21.461374,51.99165297274029
83,21.695364,52.46354312029764
84,21.924178,52.46354312029764
85,22.256415,53.21454099351738
86,22.502771,51.72438590382725
87,22.756531,52.46354312029764
88,22.991785,52.8892090686749
89,23.234021,52.46354312029764
90,23.544197,52.46354312029764
91,23.790864,51.72438590382725
92,24.036187,52.22686741642519
93,24.262573,52.46354312029764
94,24.488779,52.8892090686749
95,24.800006,52.46354312029764
96,25.033222,52.22686741642519
97,25.285903,52.22686741642519
98,25.518471,52.46354312029764
99,25.741561,53.129290097026264
100,26.04665,52.22686741642519
101,26.293288,52.70169191482626
102,26.537158,52.65061308298474
103,26.79181,52.22686741642519
104,27.044802,51.72438590382725
105,27.342962,52.46354312029764
106,27.582346,51.72438590382725
107,27.818362,52.46354312029764
108,28.062962,52.46354312029764
109,28.316262,52.379966144976095
110,28.608798,52.46354312029764
111,28.855164,52.22686741642519
112,29.088203,52.46354312029764
113,29.317868,51.72438590382725
114,29.552682,51.95839871453641
115,29.870461,52.65061308298474
116,30.107128,52.14405465798473
117,30.340841,52.46354312029764
118,30.566905,52.46354312029764
119,30.794578,52.46354312029764
120,31.111194,52.22686741642519
121,31.425904,52.46354312029764
122,31.659762,51.95839871453641
123,31.904696,52.14405465798473
124,32.224589,52.65061308298474
125,32.474075,52.46354312029764
126,32.705178,52.8892090686749
127,32.92708,52.22686741642519
128,33.158152,52.41349021349997
129,33.482556,52.14405465798473
130,33.745749,52.46354312029764
131,33.975284,53.129290097026264
132,34.224455,51.49181510014308
133,34.459111,52.8892090686749
134,34.796677,52.46354312029764
135,35.039928,51.72438590382725
136,35.273994,52.379966144976095
137,35.505553,52.46354312029764
138,35.734716,52.70169191482626
139,36.057054,51.72438590382725
140,36.309633,52.70169191482626
141,36.578455,52.70169191482626
142,36.814467,51.72438590382725
143,37.16084,52.8892090686749
144,37.420501,51.72438590382725
145,37.671736,52.70169191482626
146,37.90811,51.72438590382725
147,38.149627,51.95839871453641
148,38.475132,51.72438590382725
149,38.737075,52.70169191482626
150,38.964326,51.72438590382725
151,39.197513,52.61734308939124
152,39.429296,52.379966144976095
153,39.737534,52.19386518829134
154,39.987302,52.70169191482626
155,40.22422,52.379966144976095
156,40.447994,51.95839871453641
157,40.680635,51.95839871453641
158,41.001984,51.95839871453641
159,41.261867,52.14405465798473
160,41.531588,52.61734308939124
161,41.848667,52.70169191482626
162,42.182226,51.95839871453641
163,42.497976,52.46354312029764
164,42.743672,51.72438590382725
165,42.997823,52.8892090686749
166,43.302794,52.14405465798473
167,43.606831,51.72438590382725
168,43.840322,51.72438590382725
169,44.079884,52.46354312029764
170,44.378561,51.72438590382725
171,44.645071,51.45819167621722
172,44.875039,52.8892090686749
173,45.121175,52.22686741642519
174,45.356666,51.95839871453641
175,45.686231,52.43079709469348
176,45.959022,52.46354312029764
177,46.195852,52.65061308298474
178,46.444523,52.19386518829134
179,46.773874,51.95839871453641
180,46.996641,51.95839871453641
181,47.245673,51.95839871453641
182,47.505253,52.379966144976095
183,47.751262,52.61734308939124
184,48.085218,52.46354312029764
185,48.330629,52.8892090686749
186,48.59355,52.19386518829134
187,48.842495,52.19386518829134
188,49.157153,51.95839871453641
189,49.407093,51.95839871453641
190,49.654623,52.61734308939124
191,49.896446,52.61734308939124
192,50.135599,52.70169191482626
193,50.469925,51.72438590382725
194,50.702154,52.14405465798473
195,50.930515,52.8892090686749
196,51.183111,52.61734308939124
197,51.4268,52.379966144976095
198,51.751565,51.95839871453641
199,52.118483,51.226810106538196
200,52.448747,51.95839871453641
201,52.684024,52.8892090686749
202,53.003116,51.95839871453641
203,53.249723,52.379966144976095
204,53.494655,52.61734308939124
205,53.7322,52.14405465798473
206,53.997766,52.46354312029764
207,54.296384,51.95839871453641
208,54.549755,51.95839871453641
209,54.790029,52.379966144976095
210,55.033819,51.226810106538196
211,55.401408,53.129290097026264
212,55.672069,52.379966144976095
213,55.910522,51.95839871453641
214,56.170619,52.43079709469348
215,56.478361,52.14405465798473
216,56.727601,52.19386518829134
217,56.982215,52.61734308939124
218,57.224242,52.19386518829134
219,57.465185,51.45819167621722
220,57.788896,51.72438590382725
221,58.027587,51.95839871453641
222,58.268224,53.129290097026264
223,58.508251,52.61734308939124
224,58.744877,51.6424417510945
225,59.053074,52.70169191482626
226,59.31968,52.19386518829134
227,59.565932,51.72438590382725
228,59.836559,52.14405465798473
229,60.161098,52.379966144976095
230,60.406314,51.72438590382725
231,60.649335,52.61734308939124
232,60.894069,52.379966144976095
233,61.139079,52.379966144976095
234,61.446821,52.61734308939124
235,61.69089,52.70169191482626
236,61.934784,51.45819167621722
237,62.177787,52.19386518829134
238,62.55088,51.95839871453641
239,62.871258,51.6424417510945
240,63.155145,51.72438590382725
241,63.398079,51.95839871453641
242,63.738439,52.379966144976095
243,64.028542,52.70169191482626
244,64.261058,52.70169191482626
245,64.500967,52.19386518829134
246,64.81698,51.72438590382725
247,65.072073,52.19386518829134
248,65.297733,51.6424417510945
249,65.537881,51.95839871453641
250,65.77634,52.379966144976095
251,66.098612,51.226810106538196
252,66.365924,52.941325745960235
253,66.615869,51.72438590382725
254,66.885663,51.95839871453641
255,67.206508,52.19386518829134
256,67.468115,52.61734308939124
257,67.716359,52.61734308939124
258,67.970378,51.87570064833161
259,68.282902,52.19386518829134
260,68.58519,51.72438590382725
261,68.850194,51.72438590382725
262,69.102811,51.95839871453641
263,69.416801,51.95839871453641
264,69.669462,52.379966144976095
265,69.940795,51.95839871453641
266,70.210558,51.95839871453641
267,70.522034,51.95839871453641
268,70.773999,51.95839871453641
269,71.018652,51.72438590382725
270,71.26809,51.95839871453641
271,71.505084,51.95839871453641
272,71.801156,51.226810106538196
273,72.047594,52.19386518829134
274,72.276744,51.95839871453641
275,72.511786,52.379966144976095
276,72.75296,52.19386518829134
277,73.127894,51.95839871453641
278,73.380367,51.72438590382725
279,73.619097,52.61734308939124
280,73.856378,51.226810106538196
281,74.090543,52.19386518829134
282,74.392528,52.43079709469348
283,74.654057,52.379966144976095
284,74.903196,52.22686741642519
285,75.153597,52.19386518829134
286,75.485788,51.95839871453641
287,75.727075,51.49181510014308
288,75.966249,51.45819167621722
289,76.225845,52.61734308939124
290,76.467949,52.379966144976095
291,76.780837,52.19386518829134
292,77.02529,51.95839871453641
293,77.267005,52.379966144976095
294,77.504254,52.941325745960235
295,77.742057,52.46354312029764
296,78.056522,51.95839871453641
297,78.282783,51.6424417510945
298,78.513981,51.87570064833161
299,78.742786,51.72438590382725
300,78.999129,51.95839871453641
301,79.287298,52.70169191482626
302,79.564834,52.379966144976095
303,79.808427,50.996851553176384
304,80.06045,52.379966144976095
305,80.376435,52.379966144976095
306,80.633342,52.19386518829134
307,80.874121,52.379966144976095
308,81.117895,52.19386518829134
309,81.37297,51.72438590382725
310,81.700444,51.95839871453641
311,81.966313,52.8892090686749
312,82.209669,52.46354312029764
313,82.503054,51.72438590382725
314,82.809178,51.72438590382725
315,83.067552,51.72438590382725
316,83.405409,51.95839871453641
317,83.679117,51.95839871453641
318,83.980799,52.379966144976095
319,84.215998,52.61734308939124
320,84.459198,52.379966144976095
321,84.716538,52.379966144976095
322,84.965307,51.95839871453641
323,85.282068,52.379966144976095
324,85.524166,51.95839871453641
325,85.770258,52.70169191482626
326,86.022236,52.379966144976095
327,86.26148,51.226810106538196
328,86.568859,52.61734308939124
329,86.80528,51.226810106538196
330,87.041387,51.6424417510945
331,87.286319,52.70169191482626
332,87.544358,51.226810106538196
333,87.869942,52.70169191482626
334,88.123885,51.226810106538196
335,88.37599,52.19386518829134
336,88.599142,52.379966144976095
337,88.829086,51.87570064833161
338,89.143639,51.72438590382725
339,89.406464,52.19386518829134
340,89.729284,51.95839871453641
341,89.982712,51.95839871453641
342,90.360559,51.72438590382725
343,90.601144,52.61734308939124
344,90.83889,52.379966144976095
345,91.108216,52.379966144976095
346,91.433085,51.72438590382725
347,91.690812,52.19386518829134
348,91.924946,52.61734308939124
349,92.137914,51.95839871453641
350,92.385732,51.95839871453641
351,92.711461,52.19386518829134
352,92.949975,52.19386518829134
353,93.194885,51.95839871453641
354,93.446411,51.45819167621722
355,93.676946,51.72438590382725
356,94.129835,52.379966144976095
357,94.368605,52.379966144976095
358,94.595917,51.95839871453641
359,94.845992,52.19386518829134
360,95.098766,52.19386518829134
361,95.424851,52.379966144976095
362,95.663553,51.95839871453641
363,95.910052,51.6424417510945
364,96.153619,51.6424417510945
365,96.370905,51.87570064833161
366,96.690253,52.11040568505923
367,96.956319,51.45819167621722
368,97.18589,51.410617415898635
369,97.421829,51.45819167621722
370,97.654364,51.45819167621722
371,97.970185,50.996851553176384
372,98.210452,52.19386518829134
373,98.445874,52.61734308939124
374,98.691928,52.379966144976095
375,98.935778,52.379966144976095
376,99.25286,51.45819167621722
377,99.50203,51.6424417510945
378,99.758825,52.43079709469348
379,100.002735,51.87570064833161
380,100.333462,51.226810106538196
381,100.598714,51.95839871453641
382,100.860727,52.61734308939124
383,101.11113,51.226810106538196
384,101.447382,52.61734308939124
385,101.695742,51.87570064833161
386,101.938526,51.69100774648444
387,102.204775,51.6424417510945
388,102.443095,52.61734308939124
389,102.742243,51.45819167621722
390,102.996448,51.95839871453641
391,103.227736,51.69100774648444
392,103.477634,51.226810106538196
393,103.720383,52.61734308939124
394,104.050479,52.19386518829134
395,104.308254,52.43079709469348
396,104.62256,51.226810106538196
397,104.871028,52.19386518829134
398,105.186806,51.87570064833161
399,105.43244,51.45819167621722
400,105.663304,51.226810106538196
401,105.889621,51.95839871453641
402,106.125424,52.85619735632493
403,106.448864,52.43079709469348
404,106.710303,51.45819167621722
405,106.954261,51.45819167621722
406,107.19916,52.19386518829134
407,107.44322,52.19386518829134
408,107.799831,51.95839871453641
409,108.047835,51.226810106538196
410,108.297235,51.69100774648444
411,108.52129,51.45819167621722
412,108.761632,51.87570064833161
413,109.077969,52.61734308939124
414,109.399895,51.226810106538196
415,109.655157,51.226810106538196
416,109.90423,51.69100774648444
417,110.238794,52.43079709469348
418,110.47892,51.95839871453641
419,110.716537,50.996851553176384
420,110.946353,51.45819167621722
421,111.177266,52.19386518829134
422,111.486328,52.61734308939124
423,111.723555,51.226810106538196
424,111.970181,51.226810106538196
425,112.218691,52.379966144976095
426,112.453693,52.19386518829134
427,112.76591,51.87570064833161
428,113.021838,51.9252699133242
429,113.270279,51.69100774648444
430,113.515306,51.95839871453641
431,113.765073,51.45819167621722
432,114.091203,52.19386518829134
433,114.328135,51.6424417510945
434,114.606312,52.61734308939124
435,114.957391,51.95839871453641
436,115.288858,51.45819167621722
437,115.537939,52.19386518829134
438,115.790188,52.11040568505923
439,116.025392,51.226810106538196
440,116.268781,51.226810106538196
441,116.602545,52.19386518829134
442,116.839902,51.69100774648444
443,117.06278,51.6424417510945
444,117.31784,52.19386518829134
445,117.569718,52.19386518829134
446,117.887365,51.95839871453641
447,118.155458,51.6424417510945
448,118.407075,51.45819167621722
449,118.652329,51.45819167621722
450,118.966149,51.226810106538196
451,119.284063,51.226810106538196
452,119.549399,51.45819167621722
453,119.779372,51.226810106538196
454,120.102292,51.45819167621722
455,120.371357,52.11040568505923
456,120.606313,52.85619735632493
457,120.835947,52.19386518829134
458,121.073357,51.226810106538196
459,121.3835,51.45819167621722
460,121.623441,51.45819167621722
461,121.871541,51.72438590382725
462,122.09844,51.87570064833161
463,122.3403,52.19386518829134
464,122.666518,51.95839871453641
465,122.913232,51.95839871453641
466,123.168054,51.95839871453641
467,123.407282,51.45819167621722
468,123.737753,51.87570064833161
469,124.003212,51.69100774648444
470,124.25214,52.19386518829134
471,124.480878,51.45819167621722
472,124.734381,52.11040568505923
473,125.083853,52.19386518829134
474,125.385387,51.69100774648444
475,125.63224,52.19386518829134
476,125.862586,52.11040568505923
477,126.157326,51.45819167621722
478,126.425244,52.19386518829134
479,126.657353,51.87570064833161
480,126.905636,52.11040568505923
481,127.151338,51.226810106538196
482,127.480396,51.226810106538196
483,127.726144,51.45819167621722
484,127.957347,51.87570064833161
485,128.255669,51.69100774648444
486,128.558774,51.45819167621722
487,128.822956,52.19386518829134
488,129.044394,51.45819167621722
489,129.271112,53.0965409266905
490,129.512717,52.19386518829134
491,129.824749,51.95839871453641
492,130.084934,51.45819167621722
493,130.323631,52.43079709469348
494,130.554172,52.19386518829134
495,130.788909,51.45819167621722
496,131.114294,51.226810106538196
497,131.352575,51.6424417510945
498,131.608317,51.226810106538196
499,131.846182,51.95839871453641
500,132.086857,51.45819167621722
501,132.408061,51.45819167621722
502,132.656157,51.87570064833161
503,132.95983,52.11040568505923
504,133.270992,51.226810106538196
505,133.604587,51.45819167621722
506,133.853871,51.45819167621722
507,134.105409,51.69100774648444
508,134.358022,51.45819167621722
509,134.588259,51.9252699133242
510,134.920015,52.43079709469348
511,135.174248,51.6424417510945
512,135.406047,51.95839871453641
513,135.673806,52.19386518829134
514,136.026373,51.226810106538196
515,136.274631,51.87570064833161
516,136.504862,51.45819167621722
517,136.747788,51.87570064833161
518,136.988,51.87570064833161
519,137.307921,52.61734308939124
520,137.552299,51.69100774648444
521,137.782946,51.45819167621722
522,138.032599,51.45819167621722
523,138.265799,51.45819167621722
524,138.582095,51.45819167621722
525,138.84579,51.87570064833161
526,139.073212,51.87570064833161
527,139.324266,51.87570064833161
528,139.556978,51.45819167621722
529,139.876867,50.734088362491235
530,140.12273,51.6424417510945
531,140.356458,51.69100774648444
532,140.592841,51.87570064833161
533,141.000356,51.45819167621722
534,141.254212,52.11040568505923
535,141.507819,51.69100774648444
536,141.768668,51.45819167621722
537,142.107337,51.45819167621722
538,142.358451,52.11040568505923
539,142.604556,50.734088362491235
540,142.858227,51.87570064833161
541,143.196919,51.69100774648444
542,143.439053,51.87570064833161
543,143.691443,52.11040568505923
544,143.942078,52.43079709469348
545,144.167622,52.85619735632493
546,144.474122,51.87570064833161
547,144.724786,52.19386518829134
548,144.963789,52.11040568505923
549,145.219148,51.45819167621722
550,145.472455,52.19386518829134
551,145.7799,51.45819167621722
552,146.128069,51.45819167621722
553,146.433101,51.226810106538196
554,146.68634,51.45819167621722
555,147.027108,51.6424417510945
556,147.281144,50.734088362491235
557,147.524587,51.69100774648444
558,147.764025,51.45819167621722
559,148.015857,51.69100774648444
560,148.319895,52.11040568505923
561,148.58077,51.69100774648444
562,148.831261,51.37636009763111
563,149.080684,51.69100774648444
564,149.317105,52.34656855134638
565,149.636813,51.45819167621722
566,149.86949,52.11040568505923
567,150.1237,51.69100774648444
568,150.373865,51.193067130165595
569,150.608694,52.19386518829134
570,150.92223,51.69100774648444
571,151.192265,51.87570064833161
572,151.439997,51.9252699133242
573,151.67156,51.9252699133242
574,151.903188,52.85619735632493
575,152.234415,51.145722281084105
576,152.482951,50.734088362491235
577,152.734903,51.69100774648444
578,152.974763,50.96286994661123
579,153.2148,51.69100774648444
580,153.54054,51.9252699133242
581,153.804269,51.69100774648444
582,154.029923,51.226810106538196
583,154.281302,52.34656855134638
584,154.528629,51.193067130165595
585,154.850006,51.145722281084105
586,155.097413,51.226810106538196
587,155.34545,51.87570064833161
588,155.574271,51.45819167621722
589,155.802403,51.193067130165595
590,156.099431,50.96286994661123
591,156.444776,52.11040568505923
592,156.830628,52.11040568505923
593,157.178541,52.43079709469348
594,157.435655,51.37636009763111
595,157.666652,50.734088362491235
596,157.93099,51.69100774648444
597,158.260437,51.45819167621722
598,158.506717,51.87570064833161
599,158.750166,50.96286994661123
600,159.00018,51.69100774648444
601,159.250077,51.69100774648444
602,159.540637,51.69100774648444
603,159.811063,51.69100774648444
604,160.040891,51.9252699133242
605,160.326182,52.34656855134638
606,160.646732,51.9252699133242
607,160.907784,50.96286994661123
608,161.144505,51.69100774648444
609,161.383098,51.69100774648444
610,161.613161,52.11040568505923
611,161.942803,51.608424999159205
612,162.197177,50.96286994661123
613,162.442563,51.193067130165595
614,162.695041,51.9252699133242
615,163.027505,52.34656855134638
616,163.283029,51.37636009763111
617,163.528376,52.5842010511746
618,163.781267,51.69100774648444
619,164.128908,51.9252699133242
620,164.362514,52.11040568505923
