,time (s),surface tension (mN/m)
0,0.107539,55.21813449927458
1,0.283368,55.21813449927458
2,0.533388,55.01729343084767
3,0.789531,55.99225467228235
4,1.090269,55.29532672027128
5,1.34511,55.29532672027128
6,1.582649,55.54161461533027
7,1.823242,54.97407776751498
8,2.052441,55.29532672027128
9,2.303449,55.21813449927458
10,2.494743,55.7439685063444
11,2.702886,54.773724760442306
12,2.913058,54.773724760442306
13,3.128831,55.99225467228235
14,3.426074,55.54161461533027
15,3.64252,55.99225467228235
16,3.832894,55.29532672027128
17,4.012162,54.97407776751498
18,4.243532,55.54161461533027
19,4.528594,55.54161461533027
20,4.791536,55.99225467228235
21,5.027806,55.99225467228235
22,5.270477,55.78940990953594
23,5.506553,55.21813449927458
24,5.766224,54.773724760442306
25,5.976297,55.78940990953594
26,6.149689,55.21813449927458
27,6.352717,54.773724760442306
28,6.569698,54.773724760442306
29,6.833484,55.05053432571004
30,7.047386,55.99225467228235
31,7.249092,55.49718997473276
32,7.443013,54.53163225998832
33,7.631747,55.54161461533027
34,7.873179,54.97407776751498
35,8.07764,55.25190719606311
36,8.33941,54.2910043141109
37,8.579049,54.97407776751498
38,8.826871,54.53163225998832
39,9.118949,55.99225467228235
40,9.352628,55.7439685063444
41,9.568716,55.82197930851998
42,9.805794,56.27489412039555
43,9.990384,56.27489412039555
44,10.303545,55.05053432571004
45,10.51617,55.29532672027128
46,10.740244,54.773724760442306
47,10.930746,55.82197930851998
48,11.120115,56.27489412039555
49,11.34397,55.49718997473276
50,11.539442,55.29532672027128
51,11.723364,55.7439685063444
52,11.933213,55.21813449927458
53,12.199801,54.53163225998832
54,12.486256,55.49718997473276
55,12.733487,55.25190719606311
56,12.982741,56.52595394847048
57,13.23025,55.99225467228235
58,13.439174,55.49718997473276
59,13.696055,54.80722564588666
60,13.902359,56.52595394847048
61,14.120029,55.7439685063444
62,14.342329,55.7439685063444
63,14.5679,55.21813449927458
64,14.808646,55.25190719606311
65,14.999584,54.731497473078996
66,15.192849,55.7439685063444
67,15.379622,55.49718997473276
68,15.561755,54.731497473078996
69,15.782932,55.05053432571004
70,16.142596,55.49718997473276
71,16.39951,55.7439685063444
72,16.632991,55.7439685063444
73,16.881772,55.7439685063444
74,17.10051,55.49718997473276
75,17.363557,55.25190719606311
76,17.571538,55.7439685063444
77,17.775141,54.731497473078996
78,17.992372,55.49718997473276
79,18.205411,55.49718997473276
80,18.490204,55.25190719606311
81,18.693006,55.05053432571004
82,18.885524,55.49718997473276
83,19.076872,55.7439685063444
84,19.264342,55.49718997473276
85,19.450278,56.27489412039555
86,19.713334,55.29532672027128
87,19.969958,55.7439685063444
88,20.22057,54.80722564588666
89,20.865531,55.49718997473276
90,21.075275,54.97407776751498
91,21.289759,55.7439685063444
92,21.47558,56.27489412039555
93,21.688181,55.49718997473276
94,21.952663,55.49718997473276
95,22.169689,55.54161461533027
96,22.368552,54.97407776751498
97,22.559978,55.05053432571004
98,22.751746,55.29532672027128
99,23.023203,55.49718997473276
100,23.215015,54.731497473078996
101,23.427379,56.52595394847048
102,23.666586,55.49718997473276
103,23.917257,55.99225467228235
104,24.208562,54.97407776751498
105,24.459788,55.7439685063444
106,24.668308,55.49718997473276
107,24.877484,55.05053432571004
108,25.086691,55.25190719606311
109,25.316167,55.25190719606311
110,25.736452,55.49718997473276
111,25.951722,55.49718997473276
112,26.169092,55.7439685063444
113,26.402384,56.52595394847048
114,26.593881,55.7439685063444
115,26.783155,55.7439685063444
116,26.971877,55.7439685063444
117,27.179603,55.49718997473276
118,27.461967,56.52595394847048
119,27.73946,55.05053432571004
120,27.969525,55.49718997473276
121,28.199758,55.49718997473276
122,28.427497,55.25190719606311
123,28.687606,55.49718997473276
124,28.916363,54.49038201707188
125,29.100218,54.97407776751498
126,29.28791,55.25190719606311
127,29.497823,55.25190719606311
128,29.754231,54.80722564588666
129,29.977471,55.49718997473276
130,30.164842,55.49718997473276
131,30.353094,55.25190719606311
132,30.546782,55.49718997473276
133,30.725457,56.27489412039555
134,31.044768,55.49718997473276
135,31.289322,55.49718997473276
136,31.519075,54.731497473078996
137,31.75881,55.49718997473276
138,32.001125,55.7439685063444
139,32.30755,55.49718997473276
140,32.530229,54.731497473078996
141,32.738972,54.97407776751498
142,32.935182,55.05053432571004
143,33.151831,54.731497473078996
144,33.398318,55.49718997473276
145,33.63216,54.731497473078996
146,33.819875,54.731497473078996
147,34.009696,55.49718997473276
148,34.209618,55.7439685063444
149,34.433491,54.97407776751498
150,34.628887,55.7439685063444
151,34.843542,55.49718997473276
152,35.088789,55.49718997473276
153,35.324634,54.731497473078996
154,35.616121,54.80722564588666
155,35.864565,55.49718997473276
156,36.074015,54.80722564588666
157,36.285035,56.52595394847048
158,36.493995,54.731497473078996
159,36.717833,55.25190719606311
160,36.925812,55.49718997473276
161,37.153648,55.7439685063444
162,37.350671,54.97407776751498
163,37.576847,55.49718997473276
164,37.814987,55.05053432571004
165,38.01572,55.25190719606311
166,38.207122,56.02536167860483
167,38.398115,55.05053432571004
168,38.617774,55.05053432571004
169,38.897005,56.02536167860483
170,39.132686,55.25190719606311
171,39.383624,55.25190719606311
172,39.683814,55.49718997473276
173,39.95422,55.49718997473276
174,40.164467,55.49718997473276
175,40.375569,54.731497473078996
176,40.560156,55.328434162108536
177,40.769262,55.49718997473276
178,41.023828,54.2910043141109
179,41.269388,55.49718997473276
180,41.459912,55.25190719606311
181,41.652338,55.49718997473276
182,41.839799,55.49718997473276
183,42.063567,55.49718997473276
184,42.263885,55.49718997473276
185,42.511522,54.731497473078996
186,42.753623,54.2910043141109
187,43.004519,55.25190719606311
188,43.303473,55.05053432571004
189,43.526101,56.27489412039555
190,43.736166,54.49038201707188
191,43.941597,55.49718997473276
192,44.150302,54.731497473078996
193,44.386283,56.52595394847048
194,44.610043,55.49718997473276
195,44.828224,54.731497473078996
196,45.05056,54.2910043141109
197,45.254235,55.49718997473276
198,45.487861,55.25190719606311
199,45.682232,55.25190719606311
200,45.870647,55.49718997473276
201,46.050443,55.25190719606311
202,46.266298,54.53163225998832
203,46.576515,54.731497473078996
204,46.80572,55.7439685063444
205,47.054761,55.49718997473276
206,47.296201,55.25190719606311
207,47.503879,55.25190719606311
208,47.760083,55.49718997473276
209,47.99249,54.49038201707188
210,48.185567,54.80722564588666
211,48.412273,55.00810840148655
212,48.610294,54.56538900667098
213,48.865209,56.27489412039555
214,49.076592,54.56538900667098
215,49.271924,55.49718997473276
216,49.463026,55.49718997473276
217,49.662739,55.25190719606311
218,49.854702,55.25190719606311
219,50.097858,55.49718997473276
220,50.394232,55.49718997473276
221,50.645487,56.27489412039555
222,50.89792,55.49718997473276
223,51.184985,55.25190719606311
224,51.482297,56.02536167860483
225,51.6933,54.80722564588666
226,51.89733,55.25190719606311
227,52.085593,55.49718997473276
228,52.33653,55.49718997473276
229,52.571055,55.05053432571004
230,52.799054,55.25190719606311
231,52.99076,55.00810840148655
232,53.179862,55.25190719606311
233,53.413215,55.49718997473276
234,53.615813,55.49718997473276
235,53.796288,55.25190719606311
236,54.012636,55.25190719606311
237,54.260246,54.56538900667098
238,54.54474,55.05053432571004
239,54.803193,55.49718997473276
240,55.034526,55.25190719606311
241,55.243357,55.49718997473276
242,55.449607,55.25190719606311
243,55.69613,55.05053432571004
244,55.897065,55.49718997473276
245,56.136776,55.49718997473276
246,56.359351,56.02536167860483
247,56.597385,55.29532672027128
248,56.831307,55.7439685063444
249,57.039518,55.05053432571004
250,57.227762,55.77734456729864
251,57.419417,54.731497473078996
252,57.605528,55.25190719606311
253,57.828738,55.05053432571004
254,58.160845,54.80722564588666
255,58.416528,54.97407776751498
256,58.664536,55.49718997473276
257,58.923538,54.731497473078996
258,59.130236,55.49718997473276
259,59.375569,55.49718997473276
260,59.59499,54.731497473078996
261,59.793099,54.731497473078996
262,60.008047,54.80722564588666
263,60.22296,54.97407776751498
264,60.478864,54.80722564588666
265,60.677054,55.25190719606311
266,60.868322,55.25190719606311
267,61.063887,54.56538900667098
268,61.258333,55.25190719606311
269,61.444124,55.05053432571004
270,61.775716,54.2910043141109
271,62.029294,55.49718997473276
272,62.258963,55.25190719606311
273,62.509651,55.49718997473276
274,62.767223,55.25190719606311
275,63.041086,55.25190719606311
276,63.263089,55.25190719606311
277,63.458774,55.49718997473276
278,63.665181,54.80722564588666
279,63.889367,55.7439685063444
280,64.143524,54.2910043141109
281,64.368525,55.05053432571004
282,64.55908,54.731497473078996
283,64.74775,54.49038201707188
284,64.9477,55.25190719606311
285,65.12332,55.25190719606311
286,65.394828,54.80722564588666
287,65.651564,55.7439685063444
288,65.894028,54.97407776751498
289,66.141054,54.97407776751498
290,66.369897,55.29532672027128
291,66.640156,55.05053432571004
292,66.872471,55.7439685063444
293,67.083474,54.53163225998832
294,67.271544,54.80722564588666
295,67.4773,55.25190719606311
296,67.726836,54.97407776751498
297,67.964162,54.21606349626632
298,68.151719,54.2910043141109
299,68.341448,54.05182941726618
300,68.528322,54.731497473078996
301,68.716122,55.49718997473276
302,68.943396,54.80722564588666
303,69.133051,56.27489412039555
304,69.34678,54.2910043141109
305,69.588143,55.49718997473276
306,69.838673,54.2910043141109
307,70.128753,54.53163225998832
308,70.360256,56.02536167860483
309,70.571023,54.56538900667098
310,70.778278,54.731497473078996
311,70.975739,56.52595394847048
312,71.215165,54.80722564588666
313,71.445629,54.80722564588666
314,71.660345,55.49718997473276
315,71.887374,55.7439685063444
316,72.111809,55.49718997473276
317,72.336746,55.49718997473276
318,72.550174,55.57445516795659
319,72.724748,55.25190719606311
320,72.952255,55.49718997473276
321,73.190471,54.731497473078996
322,73.48997,56.52595394847048
323,73.745159,55.49718997473276
324,73.9823,55.29532672027128
325,74.206479,54.2910043141109
326,74.411907,55.25190719606311
327,74.656888,54.2910043141109
328,74.853673,55.49718997473276
329,75.064507,55.49718997473276
330,75.286561,55.49718997473276
331,75.501684,55.49718997473276
332,75.744343,55.05053432571004
333,75.938711,55.49718997473276
334,76.127214,55.25190719606311
335,76.31801,54.80722564588666
336,76.517635,55.29532672027128
337,76.713747,55.7439685063444
338,77.023246,54.97407776751498
339,77.264026,54.731497473078996
340,77.502867,55.49718997473276
341,77.75302,55.05053432571004
342,77.961191,55.05053432571004
343,78.207746,54.80722564588666
344,78.430087,54.80722564588666
345,78.619741,55.05053432571004
346,78.860866,54.2910043141109
347,79.07,55.49718997473276
348,79.330447,55.7439685063444
349,79.533566,54.2910043141109
350,79.721337,55.25190719606311
351,79.910236,55.49718997473276
352,80.097369,54.80722564588666
353,80.29711,55.49718997473276
354,80.563869,55.29532672027128
355,80.806257,54.97407776751498
356,81.061536,54.731497473078996
357,81.323016,54.53163225998832
358,81.616141,56.02536167860483
359,81.853589,56.52595394847048
360,82.064098,55.49718997473276
361,82.292556,54.731497473078996
362,82.490926,55.49718997473276
363,82.746764,55.05053432571004
364,82.973456,54.53163225998832
365,83.200192,54.731497473078996
366,83.387243,55.49718997473276
367,83.577875,55.25190719606311
368,83.807043,55.25190719606311
369,84.019928,54.97407776751498
370,84.216696,54.97407776751498
371,84.43288,55.21813449927458
372,84.654556,55.21813449927458
373,84.948896,55.49718997473276
374,85.197805,55.25190719606311
375,85.458657,55.49718997473276
376,85.672424,55.49718997473276
377,85.882488,54.53163225998832
378,86.145067,55.49718997473276
379,86.338322,54.731497473078996
380,86.562764,54.731497473078996
381,86.771229,56.27489412039555
382,86.982891,54.731497473078996
383,87.215072,54.2910043141109
384,87.418511,55.49718997473276
385,87.607713,55.49718997473276
386,87.800831,54.2910043141109
387,87.988327,54.80722564588666
388,88.206005,55.49718997473276
389,88.511264,54.731497473078996
390,88.780575,55.7439685063444
391,89.030984,54.731497473078996
392,89.270164,55.49718997473276
393,89.495024,55.57445516795659
394,89.74556,54.2910043141109
395,89.949731,55.49718997473276
396,90.140516,54.80722564588666
397,90.350447,55.05053432571004
398,90.564561,55.7439685063444
399,90.831159,55.49718997473276
400,91.033578,54.80722564588666
401,91.22562,55.05053432571004
402,91.416396,54.731497473078996
403,91.603541,54.731497473078996
404,91.78962,55.00810840148655
405,92.080329,54.731497473078996
406,92.32906,55.25190719606311
407,92.624756,54.05182941726618
408,92.853839,54.2910043141109
409,93.155419,55.00810840148655
410,93.377164,54.731497473078996
411,93.588604,55.05053432571004
412,93.774313,54.80722564588666
413,93.977416,54.731497473078996
414,94.226604,55.05053432571004
415,94.455983,54.53163225998832
416,94.686873,55.49718997473276
417,94.878522,55.49718997473276
418,95.067311,55.05053432571004
419,95.311246,54.80722564588666
420,95.506435,55.49718997473276
421,95.711671,54.80722564588666
422,95.930489,55.25190719606311
423,96.18173,56.07101854257017
424,96.464398,55.99225467228235
425,96.719445,56.02536167860483
426,96.966089,55.7439685063444
427,97.191986,55.05053432571004
428,97.393476,54.80722564588666
429,97.615565,55.05053432571004
430,97.820963,55.05053432571004
431,98.031025,55.29532672027128
432,98.244935,54.2910043141109
433,98.466725,55.49718997473276
434,98.703119,54.731497473078996
435,98.910676,55.25190719606311
436,99.103655,54.80722564588666
437,99.286373,55.49718997473276
438,99.511559,55.05053432571004
439,99.792322,55.25190719606311
440,100.056535,54.97407776751498
441,100.287462,54.80722564588666
442,100.527026,54.2910043141109
443,100.831331,54.2910043141109
444,101.055918,55.49718997473276
445,101.263589,55.25190719606311
446,101.453803,55.49718997473276
447,101.66897,54.731497473078996
448,101.935475,54.731497473078996
449,102.150259,55.7439685063444
450,102.348836,54.53163225998832
451,102.541518,55.05053432571004
452,102.794891,55.25190719606311
453,103.008332,55.05053432571004
454,103.241132,55.25190719606311
455,103.490565,54.97407776751498
456,103.743066,54.80722564588666
457,103.984102,55.25190719606311
458,104.271473,55.49718997473276
459,104.503319,55.7439685063444
460,104.715377,55.49718997473276
461,104.92361,54.80722564588666
462,105.111803,55.05053432571004
463,105.359633,54.05182941726618
464,105.568975,55.05053432571004
465,105.782781,54.2910043141109
466,106.003343,54.731497473078996
467,106.197339,54.731497473078996
468,106.447552,54.05182941726618
469,106.638691,54.731497473078996
470,106.837953,54.80722564588666
471,107.02786,54.53163225998832
472,107.264615,55.29532672027128
473,107.553746,55.25190719606311
474,107.803012,55.25190719606311
475,108.032229,55.05053432571004
476,108.273218,55.49718997473276
477,108.496288,54.80722564588666
478,108.753443,54.2910043141109
479,108.949933,56.07101854257017
480,109.149114,55.49718997473276
481,109.37864,55.49718997473276
482,109.604734,54.2910043141109
483,109.855484,55.7439685063444
484,110.061069,55.49718997473276
485,110.249583,54.80722564588666
486,110.439819,55.05053432571004
487,110.628986,55.05053432571004
488,110.81615,54.2910043141109
489,111.088167,55.05053432571004
490,111.334455,55.7439685063444
491,111.567347,55.05053432571004
492,111.810374,54.53163225998832
493,112.064436,55.25190719606311
494,112.319668,54.05182941726618
495,112.53134,55.49718997473276
496,112.728806,54.05182941726618
497,113.001728,55.05053432571004
498,113.215741,54.80722564588666
499,113.480019,55.49718997473276
500,113.673342,55.29532672027128
501,113.864232,55.49718997473276
502,114.064225,55.7439685063444
503,114.257817,55.49718997473276
504,114.441873,55.49718997473276
505,114.71928,55.05053432571004
506,114.97711,55.49718997473276
507,115.22903,55.29532672027128
508,115.487546,54.05182941726618
509,115.78257,55.49718997473276
510,115.989718,55.29532672027128
511,116.208615,54.49038201707188
512,116.427596,54.731497473078996
513,116.620274,55.49718997473276
514,116.883331,55.29532672027128
515,117.113543,55.7439685063444
516,117.344094,55.7439685063444
517,117.534449,54.97407776751498
518,117.725216,54.731497473078996
519,117.951577,55.49718997473276
520,118.162462,54.53163225998832
521,118.346034,54.2910043141109
522,118.563193,54.80722564588666
523,118.83149,55.05053432571004
524,119.103695,55.29532672027128
525,119.351579,54.2910043141109
526,119.601089,54.53163225998832
527,119.810515,55.29532672027128
528,120.009691,55.29532672027128
529,120.26989,55.05053432571004
530,120.455734,55.05053432571004
531,120.671785,55.29532672027128
532,120.902183,55.05053432571004
533,121.110709,55.05053432571004
534,121.32944,54.05182941726618
535,121.539528,55.49718997473276
536,121.735192,55.05053432571004
537,121.925036,55.29532672027128
538,122.12859,54.53163225998832
539,122.400019,54.2910043141109
540,122.65148,55.7439685063444
541,122.900116,54.49038201707188
542,123.160386,54.97407776751498
543,123.473108,54.2910043141109
544,123.682144,55.29532672027128
545,123.893587,54.80722564588666
546,124.08658,55.05053432571004
547,124.288526,54.2910043141109
548,124.52673,55.25190719606311
549,124.764512,55.99225467228235
550,124.953305,55.49718997473276
551,125.140156,54.80722564588666
552,125.330178,55.49718997473276
553,125.521123,55.29532672027128
554,125.759353,54.53163225998832
555,125.999682,54.05182941726618
556,126.245565,55.25190719606311
557,126.472315,55.25190719606311
558,126.723134,56.27489412039555
559,127.013525,54.97407776751498
560,127.230079,56.02536167860483
561,127.438828,54.731497473078996
562,127.666307,55.25190719606311
563,127.854166,55.49718997473276
564,128.096889,54.05182941726618
565,128.320757,55.82197930851998
566,128.539728,55.49718997473276
567,128.731619,55.49718997473276
568,128.920584,55.49718997473276
569,129.15117,54.56538900667098
570,129.356321,54.05182941726618
571,129.545943,55.25190719606311
572,129.750281,54.97407776751498
573,129.965099,54.80722564588666
574,130.29075,56.02536167860483
575,130.543833,55.25190719606311
576,130.774306,55.49718997473276
577,131.005513,55.49718997473276
578,131.213934,55.05053432571004
579,131.455024,54.05182941726618
580,131.655179,54.05182941726618
581,131.862537,55.49718997473276
582,132.074526,55.05053432571004
583,132.28921,55.49718997473276
584,132.559145,54.49038201707188
585,132.761853,54.2910043141109
586,132.956857,55.49718997473276
587,133.152296,54.731497473078996
588,133.352369,54.731497473078996
589,133.615706,55.7439685063444
590,133.867088,55.25190719606311
591,134.113406,54.80722564588666
592,134.366212,55.7439685063444
593,134.657454,54.731497473078996
594,134.885345,54.80722564588666
595,135.093672,55.49718997473276
596,135.302527,55.25190719606311
597,135.513654,55.49718997473276
598,135.776938,54.53163225998832
599,136.007105,55.05053432571004
600,136.245165,54.49038201707188
601,136.472864,54.731497473078996
602,136.679468,54.80722564588666
603,136.912066,54.80722564588666
604,137.103263,54.2910043141109
605,137.329499,55.25190719606311
606,137.559379,54.80722564588666
607,137.812122,55.49718997473276
608,138.103827,54.53163225998832
609,138.352607,54.731497473078996
610,138.58803,55.05053432571004
611,138.819882,55.49718997473276
612,139.039458,54.731497473078996
613,139.262877,55.25190719606311
614,139.478316,55.05053432571004
615,139.674172,54.49038201707188
616,139.866581,54.80722564588666
617,140.063719,55.49718997473276
618,140.320022,54.49038201707188
619,140.559197,55.29532672027128
620,140.79988,54.731497473078996
621,141.03635,55.25190719606311
622,141.278965,54.80722564588666
623,141.568573,54.80722564588666
624,141.806584,55.05053432571004
