,time (s),surface tension (mN/m)
0,0.104967,73.33003381530925
1,0.344111,71.80892425978993
2,0.540357,73.98663253520732
3,0.742576,71.21911744007981
4,0.981718,72.43698463975404
5,1.283456,73.67956286469335
6,1.548346,71.21911744007981
7,1.79312,74.90072157819692
8,2.007374,71.21911744007981
9,2.248998,73.67956286469335
10,2.543032,73.98663253520732
11,2.759245,71.80892425978993
12,2.975033,73.02710020303316
13,3.217959,72.43698463975404
14,3.434709,73.97199471317096
15,3.683443,73.97199471317096
16,3.893106,72.7374703136792
17,4.089624,73.67956286469335
18,4.290414,72.43698463975404
19,4.486314,73.98663253520732
20,4.679623,73.37424366998725
21,4.905035,73.37424366998725
22,5.151281,72.43698463975404
23,5.398751,73.67956286469335
24,5.651093,73.37424366998725
25,5.901351,72.43698463975404
26,6.198204,73.37424366998725
27,6.41384,72.43698463975404
28,6.63195,72.43698463975404
29,6.862546,72.7374703136792
30,7.06829,73.37424366998725
31,7.345082,72.7374703136792
32,7.581658,73.63469824858542
33,7.778705,73.03967282222943
34,7.970445,72.43698463975404
35,8.162914,72.13820318121769
36,8.40252,73.67956286469335
37,8.597338,73.67956286469335
38,8.800387,73.67956286469335
39,9.025405,71.84111343046254
40,9.304938,72.43698463975404
41,9.598672,72.7374703136792
42,9.849044,72.7374703136792
43,10.089928,73.37424366998725
44,10.370337,72.7374703136792
45,10.580415,73.98663253520732
46,10.855112,72.43698463975404
47,11.060747,72.43698463975404
48,11.278375,73.37424366998725
49,11.485255,72.43698463975404
50,11.683213,72.43698463975404
51,11.918872,72.43698463975404
52,12.126857,74.58937246910675
53,12.317708,73.97199471317096
54,12.50502,72.43698463975404
55,12.692375,73.03967282222943
56,12.909331,72.43698463975404
57,13.232395,73.98663253520732
58,13.4815,72.43698463975404
59,13.733511,73.97199471317096
60,13.973563,73.37424366998725
61,14.201,72.7374703136792
62,14.468615,73.37424366998725
63,14.715051,73.03967282222943
64,14.920884,73.37424366998725
65,15.141282,72.7374703136792
66,15.368981,72.43698463975404
67,15.630388,72.7374703136792
68,15.82935,72.43698463975404
69,16.028583,72.43698463975404
70,16.22047,72.43698463975404
71,16.409995,73.03967282222943
72,16.598107,72.43698463975404
73,16.888465,72.43698463975404
74,17.136494,72.7374703136792
75,17.385403,74.29546570221055
76,17.629773,73.98663253520732
77,17.867558,71.5131850675283
78,18.126246,73.98663253520732
79,18.345035,73.98663253520732
80,18.58574,74.63543362921855
81,18.812404,73.67956286469335
82,19.034376,74.63543362921855
83,19.307534,72.7374703136792
84,19.536515,74.27980122301668
85,19.729548,73.37424366998725
86,19.931496,73.37424366998725
87,20.125322,72.43698463975404
88,20.359812,72.43698463975404
89,20.606682,73.03967282222943
90,20.824622,72.13820318121769
91,21.088186,72.7374703136792
92,21.333043,72.72588468971693
93,21.648041,73.03967282222943
94,21.908324,72.7374703136792
95,22.129119,73.03967282222943
96,22.335159,74.29546570221055
97,22.592239,72.40546681063861
98,22.840345,71.5131850675283
99,23.072595,71.80892425978993
100,23.294485,72.43698463975404
101,23.516516,71.5131850675283
102,23.717342,74.29546570221055
103,23.954388,73.98663253520732
104,24.155111,72.43698463975404
105,24.346627,73.37424366998725
106,24.546678,71.80892425978993
107,24.782698,71.80892425978993
108,25.081579,72.43698463975404
109,25.398252,72.7374703136792
110,25.634624,73.33003381530925
111,25.906105,72.43698463975404
112,26.176421,73.67956286469335
113,26.39574,72.39392326269954
114,26.667114,72.7374703136792
115,26.873497,73.98663253520732
116,27.086193,72.43698463975404
117,27.391606,72.7374703136792
118,27.597477,72.1063473573456
119,27.793464,73.98663253520732
120,28.000016,72.1063473573456
121,28.20238,72.7374703136792
122,28.451952,72.43698463975404
123,28.643557,73.67956286469335
124,28.846938,72.7374703136792
125,29.041217,73.03967282222943
126,29.254239,73.67956286469335
127,29.525949,73.67956286469335
128,29.792488,73.03967282222943
129,30.042595,73.63469824858542
130,30.28167,72.7374703136792
131,30.501437,72.7374703136792
132,30.835321,73.03967282222943
133,31.042357,73.03967282222943
134,31.26385,73.03967282222943
135,31.490594,73.03967282222943
136,31.711827,72.43698463975404
137,31.951332,72.43698463975404
138,32.153052,73.34360489744486
139,32.355386,72.7374703136792
140,32.552589,73.03967282222943
141,32.755103,72.1063473573456
142,33.031894,71.80892425978993
143,33.282032,73.03967282222943
144,33.549401,71.80892425978993
145,33.81104,73.03967282222943
146,34.095096,72.7374703136792
147,34.318955,73.03967282222943
148,34.536552,73.98663253520732
149,34.744401,72.7374703136792
150,34.9512,71.80892425978993
151,35.220823,73.03967282222943
152,35.439049,73.98663253520732
153,35.63824,71.80892425978993
154,35.831322,73.03967282222943
155,36.024238,72.7374703136792
156,36.267065,72.1063473573456
157,36.469355,73.03967282222943
158,36.686243,72.7374703136792
159,36.959578,72.39392326269954
160,37.226535,73.63469824858542
161,37.520513,71.80892425978993
162,37.772844,73.98663253520732
163,37.981753,71.21911744007981
164,38.18527,73.03967282222943
165,38.432094,71.5131850675283
166,38.672923,72.1063473573456
167,38.895863,71.80892425978993
168,39.11483,73.03967282222943
169,39.335696,73.34360489744486
170,39.52978,71.80892425978993
171,39.781628,74.29546570221055
172,39.984801,71.47124045098451
173,40.175433,72.40546681063861
174,40.362283,73.34360489744486
175,40.565842,73.03967282222943
176,40.850639,72.09577479980229
177,41.215355,73.03967282222943
178,41.463688,70.89369744024289
179,41.715393,74.29546570221055
180,41.984775,73.03967282222943
181,42.194229,71.80892425978993
182,42.428141,73.03967282222943
183,42.633419,73.03967282222943
184,42.855007,73.34360489744486
185,43.134861,73.03967282222943
186,43.353883,73.03967282222943
187,43.563001,72.1063473573456
188,43.763555,73.34360489744486
189,43.954953,72.1063473573456
190,44.197916,73.03967282222943
191,44.3924,73.34360489744486
192,44.604543,72.7374703136792
193,44.869208,73.03967282222943
194,45.119819,73.34360489744486
195,45.424914,73.64927938535908
196,45.685459,73.03967282222943
197,45.911372,73.94110633862473
198,46.118818,72.1063473573456
199,46.332498,73.64927938535908
200,46.61483,73.03967282222943
201,46.851237,73.98663253520732
202,47.079665,73.03967282222943
203,47.291656,73.03967282222943
204,47.498854,71.5131850675283
205,47.740191,72.43698463975404
206,47.944222,73.64927938535908
207,48.143011,73.03967282222943
208,48.339274,73.34360489744486
209,48.5411,73.03967282222943
210,48.794249,73.63469824858542
211,49.02686,73.34360489744486
212,49.279853,71.80892425978993
213,49.550273,73.63469824858542
214,49.780023,72.1063473573456
215,50.049363,73.03967282222943
216,50.26482,73.03967282222943
217,50.48991,72.7374703136792
218,50.760897,72.69376934900356
219,50.964827,73.03967282222943
220,51.237006,74.60607550333452
221,51.509794,72.40546681063861
222,51.723308,73.34360489744486
223,51.91357,71.80892425978993
224,52.111661,73.03967282222943
225,52.335489,72.1063473573456
226,52.541762,73.03967282222943
227,52.752539,72.7374703136792
228,52.97552,72.40546681063861
229,53.241043,73.03967282222943
230,53.53496,72.40546681063861
231,53.789707,73.94110633862473
232,54.033586,73.03967282222943
233,54.242518,73.03967282222943
234,54.454564,72.1063473573456
235,54.750841,73.03967282222943
236,54.965561,72.1063473573456
237,55.235736,73.64927938535908
238,55.502402,73.03967282222943
239,55.70363,73.33003381530925
240,55.935161,72.1063473573456
241,56.163363,72.1063473573456
242,56.356617,73.03967282222943
243,56.547975,72.40546681063861
244,56.770567,71.80892425978993
245,57.087738,73.03967282222943
246,57.337598,73.34360489744486
247,57.586062,73.03967282222943
248,57.826611,73.94110633862473
249,58.045867,74.58937246910675
250,58.288357,71.80892425978993
251,58.516219,72.40546681063861
252,58.711458,74.60607550333452
253,58.953287,74.60607550333452
254,59.180468,74.60607550333452
255,59.439071,73.64927938535908
256,59.658695,70.60261944441287
257,59.848063,73.03967282222943
258,60.035142,73.34360489744486
259,60.225271,71.1864271071295
260,60.421503,74.2492710361123
261,60.655297,74.2492710361123
262,60.895216,73.64927938535908
263,61.137561,72.40546681063861
264,61.385356,75.52880648316388
265,61.759721,72.9953256105865
266,62.016779,73.03967282222943
267,62.232144,72.1063473573456
268,62.48843,72.7374703136792
269,62.685655,73.94110633862473
270,62.959066,72.1063473573456
271,63.186753,72.40546681063861
272,63.376058,73.94110633862473
273,63.575217,73.34360489744486
274,63.77054,73.34360489744486
275,64.013273,72.70629518123089
276,64.20965,72.1063473573456
277,64.393067,73.34360489744486
278,64.610096,72.70629518123089
279,64.876475,73.94110633862473
280,65.167406,72.70629518123089
281,65.416748,73.03967282222943
282,65.667366,73.34360489744486
283,65.877363,73.34360489744486
284,66.090015,72.1063473573456
285,66.39892,73.64927938535908
286,66.604863,73.94110633862473
287,66.827646,73.03967282222943
288,67.050708,72.40546681063861
289,67.25338,73.34360489744486
290,67.486729,73.03967282222943
291,67.68873,73.34360489744486
292,67.879337,73.03967282222943
293,68.079387,74.58937246910675
294,68.275861,71.1864271071295
295,68.544038,74.2492710361123
296,68.821635,73.03967282222943
297,69.071998,71.48082062077474
298,69.321863,74.2492710361123
299,69.616178,71.80892425978993
300,69.821558,73.64927938535908
301,70.033882,73.94110633862473
302,70.253251,71.48082062077474
303,70.460052,73.29860471134438
304,70.721353,73.94110633862473
305,70.954315,73.34360489744486
306,71.156352,73.64927938535908
307,71.345585,73.64927938535908
308,71.538355,72.69376934900356
309,71.7741,73.94110633862473
310,72.004463,72.70629518123089
311,72.199608,73.34360489744486
312,72.418582,73.34360489744486
313,72.686624,73.29860471134438
314,72.976776,72.1063473573456
315,73.246863,72.1063473573456
316,73.498165,73.64927938535908
317,73.710476,72.40546681063861
318,73.92253,73.94110633862473
319,74.225993,72.40546681063861
320,74.426939,73.95670924720307
321,74.652101,73.34360489744486
322,74.865234,72.70629518123089
323,75.062543,73.29860471134438
324,75.295573,72.40546681063861
325,75.506574,73.34360489744486
326,75.700432,72.40546681063861
327,75.886945,73.34360489744486
328,76.105684,73.94110633862473
329,76.369556,73.64927938535908
330,76.610116,71.48082062077474
331,76.839944,74.91847519439992
332,77.091759,73.95670924720307
333,77.341512,73.64927938535908
334,77.615346,72.70629518123089
335,77.850534,72.1063473573456
336,78.070231,72.70629518123089
337,78.305268,72.40546681063861
338,78.499206,73.60361942837619
339,78.816042,72.70629518123089
340,79.054285,72.70629518123089
341,79.260364,72.40546681063861
342,79.452224,74.2492710361123
343,79.657945,72.40546681063861
344,79.904336,73.94110633862473
345,80.102697,72.40546681063861
346,80.303655,73.00884514297255
347,80.481925,73.64927938535908
348,80.709053,72.40546681063861
349,81.033305,72.70629518123089
350,81.27852,73.34360489744486
351,81.518314,73.60361942837619
352,81.765955,72.70629518123089
353,81.978011,73.34360489744486
354,82.29886,74.2492710361123
355,82.497209,73.60361942837619
356,82.716272,72.70629518123089
357,82.925946,73.34360489744486
358,83.134837,71.77689026520319
359,83.380926,73.95670924720307
360,83.581823,72.1063473573456
361,83.776206,73.64927938535908
362,83.978996,72.69376934900356
363,84.168116,72.70629518123089
364,84.452862,72.9953256105865
365,84.713658,73.29860471134438
366,84.962357,73.64927938535908
367,85.214703,73.29860471134438
368,85.527428,73.29860471134438
369,85.747289,72.70629518123089
370,85.967057,72.70629518123089
371,86.177071,73.34360489744486
372,86.38112,72.40546681063861
373,86.645178,73.34360489744486
374,86.909577,73.29860471134438
375,87.100704,74.55920540786919
376,87.29929,72.70629518123089
377,87.494485,73.64927938535908
378,87.740409,72.40546681063861
379,87.932158,72.70629518123089
380,88.121472,73.29860471134438
381,88.342984,72.70629518123089
382,88.595346,72.70629518123089
383,88.89028,74.55920540786919
384,89.14086,72.40546681063861
385,89.391344,73.60361942837619
386,89.600902,72.40546681063861
387,89.828814,72.1063473573456
388,90.12515,72.70629518123089
389,90.331475,71.77689026520319
390,90.543889,74.2492710361123
391,90.759589,72.40546681063861
392,90.962183,72.40546681063861
393,91.192235,73.29860471134438
394,91.384531,71.48082062077474
395,91.608493,72.40546681063861
396,91.811473,74.2492710361123
397,92.019701,73.34360489744486
398,92.297395,72.40546681063861
399,92.586957,73.95670924720307
400,92.842522,72.40546681063861
401,93.090588,72.40546681063861
402,93.358865,72.69376934900356
403,93.590656,71.48082062077474
404,93.807082,73.64927938535908
405,94.071517,73.95670924720307
406,94.265708,72.40546681063861
407,94.552313,72.40546681063861
408,94.742319,72.70629518123089
409,94.943597,72.66181218692155
410,95.139728,72.70629518123089
411,95.341271,72.40546681063861
412,95.539272,72.70629518123089
413,95.789916,73.64927938535908
414,95.996908,74.55920540786919
415,96.200402,72.1063473573456
416,96.397583,72.70629518123089
417,96.725778,72.06314669265726
418,97.03487,73.95670924720307
419,97.28462,71.48082062077474
420,97.524243,71.77689026520319
421,97.745794,72.70629518123089
422,97.962154,72.70629518123089
423,98.250171,71.48082062077474
424,98.464818,72.70629518123089
425,98.683548,72.70629518123089
426,98.913552,72.70629518123089
427,99.103737,74.87092263808093
428,99.343168,75.21386179494574
429,99.542154,72.70629518123089
430,99.733002,73.95670924720307
431,99.920567,71.77689026520319
432,100.108522,73.95670924720307
433,100.333565,70.86083648940975
434,100.63131,74.87092263808093
435,100.895972,73.60361942837619
436,101.147065,73.00884514297255
437,101.398024,74.55920540786919
438,101.612656,71.77689026520319
439,101.874789,73.00884514297255
440,102.129793,73.00884514297255
441,102.322501,73.91038265317788
442,102.531603,73.00884514297255
443,102.817585,73.29860471134438
444,103.054662,73.91038265317788
445,103.253758,73.95670924720307
446,103.445033,72.70629518123089
447,103.639083,72.70629518123089
448,103.837725,72.70629518123089
449,104.028899,72.70629518123089
450,104.286782,73.31312948318626
451,104.55035,73.64927938535908
452,104.785733,73.31312948318626
453,105.034057,72.074648433899
454,105.272632,71.77689026520319
455,105.567546,72.70629518123089
456,105.786739,72.70629518123089
457,106.033987,72.70629518123089
458,106.231515,72.70629518123089
459,106.471638,73.00884514297255
460,106.737435,73.95670924720307
461,106.982557,73.00884514297255
462,107.18199,72.70629518123089
463,107.389528,73.95670924720307
464,107.582663,73.00884514297255
465,107.814944,72.70629518123089
466,108.01429,73.00884514297255
467,108.204282,72.70629518123089
468,108.419038,73.95670924720307
469,108.665277,72.1063473573456
470,108.960281,71.48082062077474
471,109.199613,72.70629518123089
472,109.441878,73.31312948318626
473,109.678267,73.00884514297255
474,109.8964,73.95670924720307
475,110.156574,72.9953256105865
476,110.367883,71.48082062077474
477,110.592714,72.70629518123089
478,110.820372,72.70629518123089
479,111.010417,73.34360489744486
480,111.252038,73.00884514297255
481,111.448636,72.074648433899
482,111.647668,72.70629518123089
483,111.838425,72.70629518123089
484,112.068833,74.55920540786919
485,112.385031,72.70629518123089
486,112.635913,71.48082062077474
487,112.908692,71.48082062077474
488,113.271567,73.60361942837619
489,113.550594,72.70629518123089
490,113.77361,72.9953256105865
491,114.033124,73.95670924720307
492,114.225043,72.9953256105865
493,114.439567,73.31312948318626
494,114.687768,72.70629518123089
495,114.894565,71.77689026520319
496,115.102728,74.26590756062393
497,115.304298,72.70629518123089
498,115.476468,72.70629518123089
499,115.67944,72.06314669265726
500,115.934672,73.95670924720307
501,116.125102,72.70629518123089
502,116.371337,73.29860471134438
503,116.625584,74.26590756062393
504,116.894145,74.55920540786919
505,117.204814,70.86083648940975
506,117.418303,73.95670924720307
507,117.631815,73.95670924720307
508,117.839398,73.29860471134438
509,118.100407,72.40546681063861
510,118.357487,73.64927938535908
511,118.59396,73.31312948318626
512,118.823959,73.64927938535908
513,119.03168,73.64927938535908
514,119.228623,72.70629518123089
515,119.46508,71.77689026520319
516,119.654394,74.26590756062393
517,119.843634,73.00884514297255
518,120.044434,73.31312948318626
519,120.267277,72.074648433899
520,120.572262,72.70629518123089
521,120.820038,72.074648433899
522,121.049082,72.40546681063861
523,121.299379,73.00884514297255
524,121.508323,73.29860471134438
525,121.77606,71.48082062077474
526,121.997844,72.70629518123089
527,122.194843,73.95670924720307
528,122.404413,71.77689026520319
529,122.62305,72.70629518123089
530,122.891431,74.87092263808093
531,123.104657,72.70629518123089
532,123.322532,73.95670924720307
533,123.533044,71.1864271071295
534,123.728372,73.31312948318626
535,123.968281,73.60361942837619
536,124.18704,75.23267815067095
537,124.451198,73.31312948318626
538,124.705681,73.95670924720307
539,124.953965,71.48082062077474
540,125.249603,73.00884514297255
541,125.476091,74.26590756062393
542,125.6743,73.31312948318626
543,125.896126,73.00884514297255
544,126.101928,73.00884514297255
545,126.358003,73.00884514297255
546,126.573095,73.00884514297255
547,126.787132,73.00884514297255
548,126.977763,73.64927938535908
549,127.1708,73.00884514297255
550,127.408255,72.40546681063861
551,127.613896,73.29860471134438
552,127.811081,73.95670924720307
553,128.023987,71.48082062077474
554,128.253622,73.00884514297255
555,128.556721,74.57688752091835
556,128.819017,71.77689026520319
557,129.058767,72.40546681063861
558,129.282437,73.31312948318626
559,129.504038,73.95670924720307
560,129.761508,74.2492710361123
561,129.988642,74.2492710361123
562,130.21563,72.70629518123089
563,130.430251,73.95670924720307
564,130.672793,73.00884514297255
565,130.931363,73.00884514297255
566,131.11893,73.64927938535908
567,131.305986,72.70629518123089
568,131.496146,73.00884514297255
569,131.682489,73.60361942837619
570,131.889114,73.00884514297255
571,132.183209,71.77689026520319
572,132.450962,73.00884514297255
573,132.704887,73.00884514297255
574,132.97431,74.26590756062393
575,133.264944,73.61916110386555
576,133.482948,73.64927938535908
577,133.767599,74.26590756062393
578,134.031829,72.40546681063861
579,134.229459,73.61916110386555
580,134.507911,73.31312948318626
581,134.717167,72.06314669265726
582,134.926066,72.40546681063861
583,135.128918,73.61916110386555
584,135.344461,71.48082062077474
585,135.612898,73.00884514297255
586,135.818315,74.55920540786919
587,136.019333,73.00884514297255
588,136.215126,73.64927938535908
589,136.439304,72.70629518123089
590,136.7414,72.40546681063861
591,137.003197,74.26590756062393
592,137.254416,72.70629518123089
593,137.501092,73.64927938535908
594,137.71454,72.70629518123089
595,137.970393,73.60361942837619
596,138.22698,71.77689026520319
597,138.433674,72.70629518123089
598,138.6496,71.77689026520319
599,138.867499,73.00884514297255
600,139.115724,73.29860471134438
601,139.3389,73.29860471134438
602,139.532944,72.70629518123089
603,139.725856,72.70629518123089
604,139.923599,73.95670924720307
605,140.114537,73.00884514297255
606,140.44871,73.34360489744486
607,140.721409,73.64927938535908
608,140.969747,72.70629518123089
609,141.224107,73.00884514297255
610,141.537039,73.91038265317788
611,141.744018,74.57688752091835
612,141.953059,72.074648433899
613,142.202272,74.26590756062393
614,142.398808,71.48082062077474
615,142.657827,72.70629518123089
616,142.880981,74.57688752091835
617,143.080396,71.77689026520319
618,143.272936,74.57688752091835
619,143.463837,73.00884514297255
620,143.703554,73.31312948318626
621,143.922375,71.48082062077474
622,144.12325,73.00884514297255
623,144.344668,74.57688752091835
624,144.585297,72.40546681063861
625,144.880317,73.29860471134438
626,145.14838,73.00884514297255
627,145.400167,72.40546681063861
