,time (s),surface tension (mN/m)
0,0.0,38.01805684566168
1,0.197861,37.61198035091467
2,0.399875,37.831221775728196
3,0.592468,36.94442508705394
4,0.80378,37.42746169044227
5,1.04004,37.42746169044227
6,1.299625,38.01805684566168
7,1.537201,37.42746169044227
8,1.768835,38.01805684566168
9,2.029453,38.01805684566168
10,2.319952,37.831221775728196
11,2.549555,37.42746169044227
12,2.759522,37.797742634618096
13,3.010045,37.61198035091467
14,3.218652,37.797742634618096
15,3.472107,37.61198035091467
16,3.700691,37.61198035091467
17,3.891585,37.61198035091467
18,4.080192,37.42746169044227
19,4.279723,37.61198035091467
20,4.51203,37.61198035091467
21,4.713327,38.20615392559634
22,4.928877,37.42746169044227
23,5.160241,37.42746169044227
24,5.39116,37.61198035091467
25,5.662947,37.61198035091467
26,5.923011,37.42746169044227
27,6.143867,37.61198035091467
28,6.35028,37.61198035091467
29,6.561479,37.42746169044227
30,6.847166,38.3277749702058
31,7.061482,37.61198035091467
32,7.277072,38.395524179008504
33,7.489864,38.01805684566168
34,7.688205,37.797742634618096
35,7.902508,37.61198035091467
36,8.112459,37.61198035091467
37,8.301255,37.61198035091467
38,8.501607,37.42746169044227
39,8.695788,37.61198035091467
40,8.897999,37.71207775261729
41,9.168446,38.20615392559634
42,9.424498,37.61198035091467
43,9.6632,37.61198035091467
44,9.914542,38.20615392559634
45,10.255158,38.20615392559634
46,10.484414,37.02803849703572
47,10.743398,37.309269465871374
48,10.94564,37.61198035091467
49,11.155557,37.61198035091467
50,11.423354,36.73002732611949
51,11.635113,37.98475952360248
52,11.825442,37.797742634618096
53,12.014062,37.797742634618096
54,12.208168,37.797742634618096
55,12.403386,37.797742634618096
56,12.62242,37.61198035091467
57,12.827316,37.797742634618096
58,13.05541,37.797742634618096
59,13.328001,37.98475952360248
60,13.568332,38.20615392559634
61,13.843555,37.797742634618096
62,14.097907,37.210271093363595
63,14.313081,37.61198035091467
64,14.543013,38.20615392559634
65,14.796758,38.395524179008504
66,15.045525,37.797742634618096
67,15.27875,37.61198035091467
68,15.538583,37.797742634618096
69,15.73532,37.797742634618096
70,15.934097,37.210271093363595
71,16.159694,37.797742634618096
72,16.374874,37.797742634618096
73,16.54857,37.98475952360248
74,16.736367,37.61198035091467
75,16.945093,37.4935366869702
76,17.215334,37.98475952360248
77,17.482476,37.092774858210184
78,17.718441,37.39372920191052
79,17.962612,37.679048415964225
80,18.192909,37.797742634618096
81,18.430979,37.679048415964225
82,18.654501,37.4935366869702
83,18.928514,37.39372920191052
84,19.130706,37.4935366869702
85,19.35277,37.309269465871374
86,19.614947,37.797742634618096
87,19.831388,37.679048415964225
88,20.027031,38.27562740298308
89,20.216051,37.98475952360248
90,20.464638,37.092774858210184
91,20.686601,37.797742634618096
92,20.88392,37.797742634618096
93,21.105563,37.797742634618096
94,21.344689,37.797742634618096
95,21.594642,37.092774858210184
96,21.871918,37.98475952360248
97,22.116756,37.092774858210184
98,22.328575,38.2942063879877
99,22.537559,38.17304211663759
100,22.790934,37.98475952360248
101,23.023991,38.17304211663759
102,23.293259,37.679048415964225
103,23.511916,37.27598281448449
104,23.702778,37.57842362638387
105,23.891445,37.797742634618096
106,24.111545,37.39372920191052
107,24.310553,37.39372920191052
108,24.50227,38.17304211663759
109,24.703773,37.98475952360248
110,24.946443,37.57842362638387
111,25.21555,38.17304211663759
112,25.460892,37.57842362638387
113,25.679267,37.98475952360248
114,25.920135,37.98475952360248
115,26.178073,37.57842362638387
116,26.416608,37.679048415964225
117,26.673253,38.17304211663759
118,26.879735,38.17304211663759
119,27.097802,38.17304211663759
120,27.326442,37.98475952360248
121,27.598228,37.764365285098755
122,27.799784,37.46042796693858
123,27.988965,37.98475952360248
124,28.176455,37.57842362638387
125,28.366823,37.764365285098755
126,28.555132,38.36260163067684
127,28.800053,38.17304211663759
128,29.043159,38.17304211663759
129,29.282748,38.36260163067684
130,29.511733,37.57842362638387
131,29.743572,37.764365285098755
132,29.998683,37.57842362638387
133,30.221347,37.27598281448449
134,30.453614,38.17304211663759
135,30.750797,37.39372920191052
136,30.955437,37.98475952360248
137,31.216523,38.17304211663759
138,31.450869,38.17304211663759
139,31.645157,37.764365285098755
140,31.847866,38.05384955264639
141,32.034171,38.17304211663759
142,32.264212,37.86581566229746
143,32.456042,38.17304211663759
144,32.649232,37.764365285098755
145,32.893796,37.39372920191052
146,33.149039,38.17304211663759
147,33.455875,37.764365285098755
148,33.731094,37.764365285098755
149,33.936462,37.57842362638387
150,34.152257,37.764365285098755
151,34.360766,37.764365285098755
152,34.641968,37.764365285098755
153,34.895315,37.46042796693858
154,35.108744,37.764365285098755
155,35.321841,37.764365285098755
156,35.528725,37.764365285098755
157,35.758218,37.764365285098755
158,35.948458,37.764365285098755
159,36.13641,37.46042796693858
160,36.328221,37.95156521241266
161,36.513206,37.764365285098755
162,36.720333,37.764365285098755
163,36.990767,38.55344940234232
164,37.236222,37.764365285098755
165,37.467457,38.36260163067684
166,37.720755,38.36260163067684
167,37.971934,37.95156521241266
168,38.240605,37.764365285098755
169,38.47019,37.764365285098755
170,38.723805,37.764365285098755
171,38.970228,37.764365285098755
172,39.177453,38.0720166844899
173,39.438595,37.764365285098755
174,39.65717,37.764365285098755
175,39.849834,38.0720166844899
176,40.045695,38.36260163067684
177,40.24819,37.764365285098755
178,40.436808,38.17304211663759
179,40.672393,37.764365285098755
180,40.889719,37.95156521241266
181,41.100369,38.48402284509787
182,41.330361,38.36260163067684
183,41.572124,38.0720166844899
184,41.919661,37.764365285098755
185,42.195049,37.86581566229746
186,42.443098,37.764365285098755
187,42.651946,37.95156521241266
188,42.958289,38.36260163067684
189,43.167021,37.86581566229746
190,43.362136,37.57842362638387
191,43.574643,37.764365285098755
192,43.822822,38.17304211663759
193,44.03,37.764365285098755
194,44.240234,37.764365285098755
195,44.429401,37.764365285098755
196,44.614547,37.764365285098755
197,44.801541,37.764365285098755
198,45.026999,38.17304211663759
199,45.325152,37.57842362638387
200,45.571844,38.17304211663759
201,45.799958,38.36260163067684
202,46.032789,37.57842362638387
203,46.241,37.57842362638387
204,46.495882,37.46042796693858
205,46.768316,37.57842362638387
206,47.009722,37.764365285098755
207,47.219015,37.764365285098755
208,47.446644,38.58617888824716
209,47.696682,38.36260163067684
210,47.897365,37.764365285098755
211,48.100463,37.764365285098755
212,48.289685,38.0720166844899
213,48.490528,37.27598281448449
214,48.675885,38.05384955264639
215,48.909991,38.17304211663759
216,49.119585,38.58617888824716
217,49.354303,38.48402284509787
218,49.620066,38.17304211663759
219,49.83071,37.98475952360248
220,50.146209,37.764365285098755
221,50.396275,38.17304211663759
222,50.612752,37.57842362638387
223,50.858182,37.764365285098755
224,51.110299,38.05384955264639
225,51.422842,38.58617888824716
226,51.637136,37.86581566229746
227,51.843243,38.65773566451662
228,52.039804,38.17304211663759
229,52.230647,38.97138740694701
230,52.46218,37.39372920191052
231,52.655299,38.97138740694701
232,52.840892,37.764365285098755
233,53.044365,37.57842362638387
234,53.275861,37.86581566229746
235,53.589567,38.36260163067684
236,53.840429,37.764365285098755
237,54.090816,38.97138740694701
238,54.330292,37.27598281448449
239,54.535116,37.98475952360248
240,54.782951,37.764365285098755
241,55.03243,37.679048415964225
242,55.22231,38.17304211663759
243,55.445344,37.57842362638387
244,55.661031,38.17304211663759
245,55.891557,37.57842362638387
246,56.091371,38.05384955264639
247,56.280415,38.05384955264639
248,56.472115,38.05384955264639
249,56.658985,37.764365285098755
250,56.844698,37.764365285098755
251,57.072694,38.36260163067684
252,57.315032,38.67512662578431
253,57.558498,37.764365285098755
254,57.806641,37.57842362638387
255,58.062079,37.764365285098755
256,58.352196,38.97138740694701
257,58.577685,38.0720166844899
258,58.839287,37.39372920191052
259,59.107693,37.46042796693858
260,59.315746,38.17304211663759
261,59.583376,38.17304211663759
262,59.795451,38.97138740694701
263,59.982603,38.17304211663759
264,60.172287,38.0720166844899
265,60.364789,38.36260163067684
266,60.561132,38.17304211663759
267,60.782582,37.764365285098755
268,60.990866,38.36260163067684
269,61.188848,37.764365285098755
270,61.424093,37.764365285098755
271,61.734547,38.140034560180936
272,62.018163,37.764365285098755
273,62.257227,37.95156521241266
274,62.483478,37.95156521241266
275,62.714341,38.36260163067684
276,62.9678,38.05384955264639
277,63.215122,37.764365285098755
278,63.427952,38.36260163067684
279,63.64012,37.764365285098755
280,63.843806,38.55344940234232
281,64.032456,37.764365285098755
282,64.255829,38.36260163067684
283,64.465725,38.36260163067684
284,64.65479,38.67512662578431
285,64.842223,38.17304211663759
286,65.063334,38.36260163067684
287,65.344096,38.55344940234232
288,65.588047,37.764365285098755
289,65.825893,38.55344940234232
290,66.055434,37.764365285098755
291,66.264935,38.36260163067684
292,66.511936,37.95156521241266
293,66.769284,38.67512662578431
294,66.960143,38.36260163067684
295,67.168591,37.764365285098755
296,67.374648,37.95156521241266
297,67.614509,38.0720166844899
298,67.806228,38.36260163067684
299,68.001448,37.64612126112261
300,68.189668,37.059412856841014
301,68.377981,38.36260163067684
302,68.56417,37.64612126112261
303,68.806654,38.0720166844899
304,69.032759,38.140034560180936
305,69.282415,37.95156521241266
306,69.586342,38.55344940234232
307,69.872442,38.8675291590241
308,70.118231,37.764365285098755
309,70.335318,38.74559688943135
310,70.588978,38.36260163067684
311,70.85537,37.36009651604106
312,71.088354,38.140034560180936
313,71.317115,37.764365285098755
314,71.567398,38.140034560180936
315,71.784482,38.140034560180936
316,72.008317,39.06124199595672
317,72.254092,38.140034560180936
318,72.506216,37.764365285098755
319,72.697546,37.95156521241266
320,72.889839,38.4507463890885
321,73.116551,38.140034560180936
322,73.359724,38.8675291590241
323,73.619641,38.74559688943135
324,73.851223,38.140034560180936
325,74.095512,38.55344940234232
326,74.323697,38.55344940234232
327,74.612804,38.4507463890885
328,74.85436,38.140034560180936
329,75.054585,38.74559688943135
330,75.26545,38.140034560180936
331,75.474889,38.140034560180936
332,75.726464,38.329784599232994
333,75.930837,38.140034560180936
334,76.119552,38.140034560180936
335,76.3109,38.140034560180936
336,76.500888,38.55344940234232
337,76.690221,38.140034560180936
338,76.947046,37.95156521241266
339,77.189493,37.731090128586146
340,77.44003,38.55344940234232
341,77.689216,38.140034560180936
342,77.917838,38.55344940234232
343,78.169594,38.140034560180936
344,78.377467,38.140034560180936
345,78.635367,37.544967888808394
346,78.842849,38.140034560180936
347,79.0768,37.95156521241266
348,79.344822,38.329784599232994
349,79.544211,38.140034560180936
350,79.73682,37.95156521241266
351,79.920538,37.95156521241266
352,80.107724,38.74559688943135
353,80.297167,37.4274206174381
354,80.527143,38.140034560180936
355,80.738141,38.4507463890885
356,80.969441,38.140034560180936
357,81.216854,37.95156521241266
358,81.47393,37.95156521241266
359,81.751967,37.95156521241266
360,82.044457,38.55344940234232
361,82.334791,38.74559688943135
362,82.582259,38.55344940234232
363,82.862778,37.95156521241266
364,83.08367,38.55344940234232
365,83.294453,38.55344940234232
366,83.498356,38.329784599232994
367,83.69757,38.140034560180936
368,83.929883,37.95156521241266
369,84.124687,38.74559688943135
370,84.312165,38.140034560180936
371,84.512774,38.140034560180936
372,84.70495,38.140034560180936
373,84.99147,38.55344940234232
374,85.248656,38.140034560180936
375,85.483033,38.55344940234232
376,85.730627,38.36260163067684
377,85.970056,38.140034560180936
378,86.234844,38.55344940234232
379,86.481554,38.55344940234232
380,86.730751,38.74559688943135
381,86.928635,38.74559688943135
382,87.1527,38.140034560180936
383,87.416257,37.83307375913891
384,87.611286,37.36009651604106
385,87.800269,37.95156521241266
386,87.990085,38.140034560180936
387,88.17734,37.36009651604106
388,88.374756,37.95156521241266
389,88.607339,38.55344940234232
390,88.838733,37.36009651604106
391,89.100354,37.36009651604106
392,89.366433,38.93905567244485
393,89.589864,38.74559688943135
394,89.871677,38.93905567244485
395,90.079874,38.55344940234232
396,90.299645,38.93905567244485
397,90.510934,38.55344940234232
398,90.767214,38.93905567244485
399,91.034005,37.95156521241266
400,91.268317,38.140034560180936
401,91.489807,37.95156521241266
402,91.689631,38.140034560180936
403,91.907835,38.140034560180936
404,92.132635,37.95156521241266
405,92.388251,38.140034560180936
406,92.578123,38.74559688943135
407,92.791352,37.95156521241266
408,93.018106,38.55344940234232
409,93.296832,38.140034560180936
410,93.538339,38.140034560180936
411,93.778065,38.140034560180936
412,94.017381,37.731090128586146
413,94.249524,39.3618721752451
414,94.519764,38.140034560180936
415,94.77341,38.55344940234232
416,94.963467,38.140034560180936
417,95.184764,38.140034560180936
418,95.404212,38.140034560180936
419,95.646015,37.36009651604106
420,95.837644,38.74559688943135
421,96.023903,38.55344940234232
422,96.213503,37.95156521241266
423,96.401358,38.140034560180936
424,96.587223,38.74559688943135
425,96.840729,38.74559688943135
426,97.069554,38.140034560180936
427,97.29741,38.93905567244485
428,97.529075,37.95156521241266
429,97.776849,37.95156521241266
430,98.055236,38.55344940234232
431,98.300934,38.140034560180936
432,98.552962,37.731090128586146
433,98.804228,38.140034560180936
434,99.029939,38.93905567244485
435,99.280775,37.731090128586146
436,99.49819,38.55344940234232
437,99.738628,38.140034560180936
438,99.931373,38.520826720870275
439,100.122268,38.329784599232994
440,100.356732,38.329784599232994
441,100.557636,37.95156521241266
442,100.7468,38.93905567244485
443,100.94851,38.93905567244485
444,101.160551,38.55344940234232
445,101.440592,38.74559688943135
446,101.682867,38.140034560180936
447,101.930776,38.74559688943135
448,102.183129,37.95156521241266
449,102.393931,38.140034560180936
450,102.707811,38.140034560180936
451,102.97718,38.93905567244485
452,103.171004,38.329784599232994
453,103.396095,38.93905567244485
454,103.624515,38.329784599232994
455,103.870451,38.329784599232994
456,104.072127,38.329784599232994
457,104.269465,38.329784599232994
458,104.463213,37.731090128586146
459,104.653074,38.93905567244485
460,104.838617,38.140034560180936
461,105.063831,38.520826720870275
462,105.29577,38.329784599232994
463,105.54476,38.329784599232994
464,105.787828,37.731090128586146
465,106.024647,38.329784599232994
466,106.308099,38.93905567244485
467,106.534827,38.93905567244485
468,106.778122,38.329784599232994
469,107.04181,38.329784599232994
470,107.24308,38.329784599232994
471,107.486806,38.93905567244485
472,107.714538,38.93905567244485
473,107.924918,38.329784599232994
474,108.115544,38.520826720870275
475,108.304311,38.62566414412376
476,108.527816,38.329784599232994
477,108.729701,37.731090128586146
478,108.951869,37.918474322427926
479,109.177223,38.93905567244485
480,109.431022,38.93905567244485
481,109.727764,38.93905567244485
482,109.953957,38.520826720870275
483,110.198856,38.329784599232994
484,110.408928,38.93905567244485
485,110.622409,38.93905567244485
486,110.894929,38.93905567244485
487,111.149632,38.93905567244485
488,111.371566,38.140034560180936
489,111.600822,38.329784599232994
490,111.813856,38.520826720870275
491,112.062758,38.520826720870275
492,112.24892,38.329784599232994
493,112.443117,38.329784599232994
494,112.641362,38.93905567244485
495,112.895264,38.329784599232994
496,113.120397,38.329784599232994
497,113.336755,38.520826720870275
498,113.569328,38.71317243838574
499,113.81249,38.93905567244485
500,114.048177,38.329784599232994
501,114.288557,37.918474322427926
502,114.53869,37.731090128586146
503,114.800543,39.13383745613805
504,115.006698,38.329784599232994
505,115.254476,38.93905567244485
506,115.486882,38.329784599232994
507,115.698852,38.329784599232994
508,115.909799,38.520826720870275
509,116.096582,38.520826720870275
510,116.283103,37.918474322427926
511,116.473543,38.10713167567025
512,116.686184,38.10713167567025
513,116.889445,38.10713167567025
514,117.078483,38.329784599232994
515,117.30248,38.71317243838574
516,117.54563,38.10713167567025
517,117.824477,38.10713167567025
518,118.076618,38.71317243838574
519,118.315786,38.520826720870275
520,118.582317,38.71317243838574
521,118.792852,38.71317243838574
522,119.088326,37.731090128586146
523,119.306084,38.520826720870275
524,119.515941,38.520826720870275
525,119.700908,38.520826720870275
526,119.931836,38.520826720870275
527,120.175811,38.10713167567025
528,120.375298,38.329784599232994
529,120.577048,38.71317243838574
530,120.767173,38.71317243838574
531,120.959918,38.520826720870275
532,121.215693,38.520826720870275
533,121.441352,38.520826720870275
534,121.690059,38.10713167567025
535,121.929224,39.32995407109368
536,122.169259,38.71317243838574
537,122.468621,38.71317243838574
538,122.679818,38.71317243838574
539,122.898772,38.71317243838574
540,123.197989,39.32995407109368
541,123.397661,38.71317243838574
542,123.646744,38.520826720870275
543,123.863754,38.71317243838574
544,124.050538,38.10713167567025
545,124.239449,38.10713167567025
546,124.425099,38.71317243838574
547,124.614492,38.71317243838574
548,124.830251,38.520826720870275
549,125.047046,38.10713167567025
550,125.278402,38.71317243838574
551,125.512715,38.520826720870275
552,125.739546,38.71317243838574
553,125.999237,38.71317243838574
554,126.260561,38.520826720870275
555,126.517576,38.71317243838574
556,126.732632,38.520826720870275
557,127.074584,38.71317243838574
558,127.284079,38.520826720870275
559,127.517803,38.71317243838574
560,127.742186,38.10713167567025
561,127.936964,38.10713167567025
562,128.176429,38.520826720870275
563,128.38914,38.10713167567025
564,128.583441,38.10713167567025
565,128.773706,38.90683338860547
566,128.973493,38.71317243838574
567,129.173168,38.10713167567025
568,129.408519,38.520826720870275
569,129.645288,38.71317243838574
570,129.892823,38.520826720870275
571,130.14818,38.71317243838574
572,130.397975,38.520826720870275
573,130.655955,38.90683338860547
574,130.878812,38.10713167567025
575,131.138679,38.71317243838574
576,131.400655,38.10713167567025
577,131.592907,38.90683338860547
578,131.858046,38.71317243838574
579,132.087997,38.71317243838574
580,132.279164,38.10713167567025
581,132.467546,38.90683338860547
582,132.655132,38.10713167567025
583,132.844404,38.10713167567025
584,133.071205,38.71317243838574
585,133.281083,38.90683338860547
586,133.589176,38.10713167567025
587,133.844443,38.71317243838574
588,134.128226,38.90683338860547
589,134.385242,38.71317243838574
590,134.614956,38.71317243838574
591,134.828755,38.48831128207268
592,135.032119,38.48831128207268
593,135.326207,38.29707351342149
594,135.532726,38.29707351342149
595,135.747631,38.10713167567025
596,135.961288,38.71317243838574
597,136.155444,38.90683338860547
598,136.382468,38.48831128207268
599,136.581144,39.1018213334529
600,136.769814,38.48831128207268
601,136.956829,38.71317243838574
602,137.152855,38.71317243838574
603,137.349422,39.1018213334529
604,137.599156,38.71317243838574
605,137.852553,38.29707351342149
606,138.083461,38.48831128207268
607,138.334922,38.48831128207268
608,138.560932,38.48831128207268
609,138.849835,39.1018213334529
610,139.085038,38.90683338860547
611,139.361008,38.90683338860547
612,139.562054,38.29707351342149
613,139.777839,39.1018213334529
614,140.034988,38.48831128207268
615,140.228438,38.48831128207268
616,140.426412,38.10713167567025
617,140.624786,38.48831128207268
618,140.821351,38.48831128207268
